,Gyro 0,Gyro 1,Gyro 2,Label,Orientation 0,Orientation 1,Orientation 2,Orientation 3,Sensor 0,Sensor 1,Sensor 2,Sensor 3,Sensor 4,Sensor 5,Sensor 6,Sensor 7,Timestamp
0,-46.0,27.0,46.0,1.0,2549.0,10727.0,6847.0,9997.0,-6.0,2.0,11.0,5.0,4.0,1.0,-13.0,-1.0,1.9073486328125e-06
1,-46.0,27.0,46.0,1.0,2549.0,10727.0,6847.0,9997.0,-2.0,-3.0,-7.0,2.0,-3.0,-3.0,1.0,-2.0,0.0028557777404785156
2,-46.0,27.0,46.0,1.0,2549.0,10727.0,6847.0,9997.0,3.0,6.0,28.0,7.0,17.0,1.0,-1.0,0.0,0.005366325378417969
3,-19.0,21.0,39.0,1.0,2545.0,10729.0,6843.0,10000.0,3.0,6.0,28.0,7.0,17.0,1.0,-1.0,0.0,0.007854461669921875
4,-19.0,21.0,39.0,1.0,2545.0,10729.0,6843.0,10000.0,0.0,12.0,20.0,2.0,-10.0,-2.0,-11.0,0.0,0.010231256484985352
5,-13.0,32.0,36.0,1.0,2539.0,10730.0,6838.0,10004.0,0.0,12.0,20.0,2.0,-10.0,-2.0,-11.0,0.0,0.012544393539428711
6,-13.0,32.0,36.0,1.0,2539.0,10730.0,6838.0,10004.0,-3.0,-11.0,-11.0,-2.0,8.0,1.0,1.0,-4.0,0.01486515998840332
7,-13.0,32.0,36.0,1.0,2539.0,10730.0,6838.0,10004.0,9.0,11.0,7.0,-2.0,-5.0,-3.0,6.0,2.0,0.01711726188659668
8,-1.0,29.0,30.0,1.0,2532.0,10730.0,6836.0,10006.0,9.0,11.0,7.0,-2.0,-5.0,-3.0,6.0,2.0,0.019385576248168945
9,-1.0,29.0,30.0,1.0,2532.0,10730.0,6836.0,10006.0,-6.0,-8.0,-9.0,-4.0,1.0,0.0,-4.0,4.0,0.022129535675048828
10,-1.0,29.0,30.0,1.0,2532.0,10730.0,6836.0,10006.0,-4.0,-9.0,-17.0,-8.0,-6.0,-6.0,-8.0,-6.0,0.024881601333618164
11,29.0,20.0,25.0,1.0,2523.0,10733.0,6837.0,10005.0,-4.0,-9.0,-17.0,-8.0,-6.0,-6.0,-8.0,-6.0,0.027249574661254883
12,29.0,20.0,25.0,1.0,2523.0,10733.0,6837.0,10005.0,2.0,0.0,3.0,-2.0,4.0,3.0,-2.0,-3.0,0.029583215713500977
13,29.0,20.0,25.0,1.0,2523.0,10733.0,6837.0,10005.0,0.0,-16.0,0.0,-1.0,-4.0,4.0,-7.0,1.0,0.031813859939575195
14,74.0,27.0,20.0,1.0,2510.0,10735.0,6845.0,10001.0,0.0,-16.0,0.0,-1.0,-4.0,4.0,-7.0,1.0,0.03404974937438965
15,74.0,27.0,20.0,1.0,2510.0,10735.0,6845.0,10001.0,-4.0,-2.0,6.0,-1.0,17.0,-3.0,-6.0,-3.0,0.03638792037963867
16,74.0,27.0,20.0,1.0,2510.0,10735.0,6845.0,10001.0,0.0,0.0,-14.0,4.0,4.0,-2.0,-7.0,-5.0,0.03873944282531738
17,98.0,28.0,14.0,1.0,2495.0,10737.0,6856.0,9995.0,0.0,0.0,-14.0,4.0,4.0,-2.0,-7.0,-5.0,0.04097867012023926
18,98.0,28.0,14.0,1.0,2495.0,10737.0,6856.0,9995.0,5.0,5.0,7.0,1.0,3.0,2.0,-4.0,3.0,0.04330730438232422
19,98.0,28.0,14.0,1.0,2495.0,10737.0,6856.0,9995.0,-7.0,-21.0,-47.0,-11.0,-24.0,-5.0,3.0,5.0,0.04555559158325195
20,63.0,22.0,15.0,1.0,2487.0,10737.0,6865.0,9990.0,-7.0,-21.0,-47.0,-11.0,-24.0,-5.0,3.0,5.0,0.04778432846069336
21,63.0,22.0,15.0,1.0,2487.0,10737.0,6865.0,9990.0,3.0,9.0,-12.0,2.0,2.0,3.0,0.0,1.0,0.050251007080078125
22,63.0,22.0,15.0,1.0,2487.0,10737.0,6865.0,9990.0,0.0,10.0,11.0,-4.0,4.0,-6.0,1.0,-4.0,0.052678823471069336
23,79.0,-23.0,43.0,1.0,2476.0,10747.0,6871.0,9979.0,0.0,10.0,11.0,-4.0,4.0,-6.0,1.0,-4.0,0.05553150177001953
24,79.0,-23.0,43.0,1.0,2476.0,10747.0,6871.0,9979.0,-1.0,4.0,4.0,-5.0,-14.0,-1.0,13.0,-2.0,0.05817580223083496
25,79.0,-23.0,43.0,1.0,2476.0,10747.0,6871.0,9979.0,-1.0,-3.0,-6.0,3.0,18.0,-4.0,-14.0,-2.0,0.06044483184814453
26,71.0,-43.0,41.0,1.0,2466.0,10760.0,6876.0,9964.0,-1.0,-3.0,-6.0,3.0,18.0,-4.0,-14.0,-2.0,0.06274819374084473
27,71.0,-43.0,41.0,1.0,2466.0,10760.0,6876.0,9964.0,-5.0,2.0,11.0,6.0,-20.0,-9.0,-1.0,3.0,0.0650777816772461
28,71.0,-43.0,41.0,1.0,2466.0,10760.0,6876.0,9964.0,6.0,8.0,-4.0,-5.0,-10.0,4.0,11.0,4.0,0.06733822822570801
29,45.0,-34.0,47.0,1.0,2458.0,10770.0,6877.0,9954.0,6.0,8.0,-4.0,-5.0,-10.0,4.0,11.0,4.0,0.0695807933807373
30,45.0,-34.0,47.0,1.0,2458.0,10770.0,6877.0,9954.0,-2.0,-9.0,18.0,-1.0,-1.0,-1.0,7.0,-3.0,0.07196688652038574
31,45.0,-34.0,47.0,1.0,2458.0,10770.0,6877.0,9954.0,-2.0,-7.0,-7.0,-5.0,4.0,4.0,9.0,-3.0,0.07426333427429199
32,37.0,-23.0,28.0,1.0,2453.0,10778.0,6880.0,9945.0,-2.0,-7.0,-7.0,-5.0,4.0,4.0,9.0,-3.0,0.07651996612548828
33,37.0,-23.0,28.0,1.0,2453.0,10778.0,6880.0,9945.0,0.0,17.0,11.0,-2.0,-7.0,-2.0,-6.0,-4.0,0.07913923263549805
34,37.0,-23.0,28.0,1.0,2453.0,10778.0,6880.0,9945.0,-5.0,-2.0,12.0,3.0,-12.0,-5.0,0.0,4.0,0.08141374588012695
35,38.0,-16.0,39.0,1.0,2446.0,10784.0,6881.0,9939.0,-5.0,-2.0,12.0,3.0,-12.0,-5.0,0.0,4.0,0.08380627632141113
36,38.0,-16.0,39.0,1.0,2446.0,10784.0,6881.0,9939.0,-3.0,-15.0,-13.0,-6.0,3.0,4.0,-5.0,-1.0,0.08651161193847656
37,38.0,-16.0,39.0,1.0,2446.0,10784.0,6881.0,9939.0,0.0,4.0,5.0,-2.0,-18.0,-7.0,18.0,-4.0,0.08922934532165527
38,35.0,-27.0,51.0,1.0,2440.0,10792.0,6880.0,9932.0,0.0,4.0,5.0,-2.0,-18.0,-7.0,18.0,-4.0,0.09148907661437988
39,35.0,-27.0,51.0,1.0,2440.0,10792.0,6880.0,9932.0,-4.0,-8.0,-5.0,0.0,2.0,-3.0,-13.0,-4.0,0.09382128715515137
40,35.0,-27.0,51.0,1.0,2440.0,10792.0,6880.0,9932.0,4.0,7.0,4.0,2.0,17.0,1.0,7.0,-2.0,0.0960700511932373
41,-3.0,-16.0,52.0,1.0,2438.0,10798.0,6875.0,9930.0,4.0,7.0,4.0,2.0,17.0,1.0,7.0,-2.0,0.09831738471984863
42,-3.0,-16.0,52.0,1.0,2438.0,10798.0,6875.0,9930.0,0.0,-3.0,-4.0,3.0,1.0,4.0,6.0,0.0,0.10063695907592773
43,-3.0,-16.0,52.0,1.0,2438.0,10798.0,6875.0,9930.0,-8.0,-7.0,-5.0,4.0,5.0,1.0,17.0,-3.0,0.10294485092163086
44,7.0,-20.0,54.0,1.0,2431.0,10805.0,6868.0,9928.0,-8.0,-7.0,-5.0,4.0,5.0,1.0,17.0,-3.0,0.10526490211486816
45,7.0,-20.0,54.0,1.0,2431.0,10805.0,6868.0,9928.0,3.0,9.0,-10.0,-2.0,-15.0,-8.0,-1.0,-2.0,0.10758256912231445
46,7.0,-20.0,54.0,1.0,2431.0,10805.0,6868.0,9928.0,-1.0,-2.0,10.0,-1.0,1.0,4.0,0.0,0.0,0.10990762710571289
47,22.0,-21.0,46.0,1.0,2424.0,10813.0,6864.0,9925.0,-1.0,-2.0,10.0,-1.0,1.0,4.0,0.0,0.0,0.11221742630004883
48,22.0,-21.0,46.0,1.0,2424.0,10813.0,6864.0,9925.0,1.0,7.0,18.0,-1.0,4.0,-6.0,1.0,-3.0,0.11453866958618164
49,22.0,-21.0,46.0,1.0,2424.0,10813.0,6864.0,9925.0,1.0,-6.0,-26.0,-3.0,2.0,3.0,-11.0,1.0,0.11707687377929688
50,45.0,-5.0,31.0,1.0,2415.0,10817.0,6866.0,9921.0,1.0,-6.0,-26.0,-3.0,2.0,3.0,-11.0,1.0,0.11980986595153809
51,45.0,-5.0,31.0,1.0,2415.0,10817.0,6866.0,9921.0,5.0,4.0,4.0,0.0,2.0,6.0,12.0,7.0,0.12223362922668457
52,45.0,-5.0,31.0,1.0,2415.0,10817.0,6866.0,9921.0,1.0,1.0,-1.0,-3.0,5.0,-9.0,-7.0,1.0,0.12449121475219727
53,69.0,-9.0,36.0,1.0,2405.0,10823.0,6871.0,9914.0,1.0,1.0,-1.0,-3.0,5.0,-9.0,-7.0,1.0,0.12676644325256348
54,69.0,-9.0,36.0,1.0,2405.0,10823.0,6871.0,9914.0,-3.0,-7.0,-2.0,2.0,-8.0,-5.0,-2.0,-1.0,0.12912344932556152
55,69.0,-9.0,36.0,1.0,2405.0,10823.0,6871.0,9914.0,-6.0,-2.0,7.0,9.0,-1.0,3.0,-3.0,-4.0,0.1314070224761963
56,62.0,-10.0,25.0,1.0,2398.0,10827.0,6877.0,9906.0,-6.0,-2.0,7.0,9.0,-1.0,3.0,-3.0,-4.0,0.13369464874267578
57,62.0,-10.0,25.0,1.0,2398.0,10827.0,6877.0,9906.0,-1.0,-9.0,-38.0,-5.0,0.0,1.0,-3.0,0.0,0.13605833053588867
58,62.0,-10.0,25.0,1.0,2398.0,10827.0,6877.0,9906.0,0.0,8.0,2.0,-2.0,13.0,2.0,-1.0,1.0,0.1382904052734375
59,5.0,2.0,26.0,1.0,2398.0,10829.0,6879.0,9903.0,0.0,8.0,2.0,-2.0,13.0,2.0,-1.0,1.0,0.14053869247436523
60,5.0,2.0,26.0,1.0,2398.0,10829.0,6879.0,9903.0,-2.0,-3.0,2.0,-6.0,-2.0,-5.0,-13.0,-4.0,0.14287877082824707
61,5.0,2.0,26.0,1.0,2398.0,10829.0,6879.0,9903.0,-8.0,-8.0,5.0,1.0,1.0,4.0,1.0,1.0,0.14513015747070312
62,-10.0,1.0,21.0,1.0,2399.0,10829.0,6877.0,9904.0,-8.0,-8.0,5.0,1.0,1.0,4.0,1.0,1.0,0.14760279655456543
63,-10.0,1.0,21.0,1.0,2399.0,10829.0,6877.0,9904.0,1.0,-1.0,-8.0,3.0,6.0,3.0,1.0,5.0,0.15031790733337402
64,-10.0,1.0,21.0,1.0,2399.0,10829.0,6877.0,9904.0,0.0,-6.0,-5.0,0.0,-6.0,-1.0,14.0,-1.0,0.1527118682861328
65,20.0,-8.0,19.0,1.0,2396.0,10832.0,6878.0,9901.0,0.0,-6.0,-5.0,0.0,-6.0,-1.0,14.0,-1.0,0.15511608123779297
66,20.0,-8.0,19.0,1.0,2396.0,10832.0,6878.0,9901.0,-3.0,-9.0,-16.0,-9.0,-24.0,-6.0,-6.0,-4.0,0.15761852264404297
67,20.0,-8.0,19.0,1.0,2396.0,10832.0,6878.0,9901.0,-2.0,0.0,-8.0,-9.0,-3.0,3.0,-6.0,-4.0,0.16001224517822266
68,31.0,-7.0,20.0,1.0,2393.0,10835.0,6882.0,9896.0,-2.0,0.0,-8.0,-9.0,-3.0,3.0,-6.0,-4.0,0.16227293014526367
69,31.0,-7.0,20.0,1.0,2393.0,10835.0,6882.0,9896.0,2.0,-4.0,-13.0,-3.0,7.0,1.0,1.0,4.0,0.16459012031555176
70,31.0,-7.0,20.0,1.0,2393.0,10835.0,6882.0,9896.0,4.0,5.0,7.0,0.0,-2.0,1.0,-2.0,3.0,0.16686272621154785
71,-18.0,6.0,14.0,1.0,2396.0,10834.0,6881.0,9896.0,4.0,5.0,7.0,0.0,-2.0,1.0,-2.0,3.0,0.16916537284851074
72,-18.0,6.0,14.0,1.0,2396.0,10834.0,6881.0,9896.0,1.0,16.0,34.0,2.0,-17.0,-5.0,-6.0,6.0,0.1719346046447754
73,-18.0,6.0,14.0,1.0,2396.0,10834.0,6881.0,9896.0,3.0,-9.0,-38.0,-6.0,4.0,3.0,-11.0,-4.0,0.17421817779541016
74,-16.0,-4.0,17.0,1.0,2397.0,10836.0,6879.0,9895.0,3.0,-9.0,-38.0,-6.0,4.0,3.0,-11.0,-4.0,0.1764664649963379
75,-16.0,-4.0,17.0,1.0,2397.0,10836.0,6879.0,9895.0,-7.0,-9.0,-5.0,0.0,6.0,3.0,6.0,-6.0,0.17923831939697266
76,-16.0,-4.0,17.0,1.0,2397.0,10836.0,6879.0,9895.0,-10.0,-5.0,11.0,4.0,-3.0,-1.0,-7.0,-3.0,0.18199658393859863
77,-5.0,-10.0,7.0,1.0,2397.0,10837.0,6879.0,9894.0,-10.0,-5.0,11.0,4.0,-3.0,-1.0,-7.0,-3.0,0.18433737754821777
78,-5.0,-10.0,7.0,1.0,2397.0,10837.0,6879.0,9894.0,10.0,24.0,-1.0,-3.0,19.0,4.0,5.0,4.0,0.18674778938293457
79,-5.0,-10.0,7.0,1.0,2397.0,10837.0,6879.0,9894.0,-1.0,-2.0,5.0,-2.0,9.0,-6.0,6.0,0.0,0.18923616409301758
80,1.0,-11.0,0.0,1.0,2397.0,10837.0,6880.0,9893.0,-1.0,-2.0,5.0,-2.0,9.0,-6.0,6.0,0.0,0.191514253616333
81,1.0,-11.0,0.0,1.0,2397.0,10837.0,6880.0,9893.0,-6.0,-9.0,2.0,7.0,-8.0,-8.0,-11.0,-6.0,0.19383525848388672
82,1.0,-11.0,0.0,1.0,2397.0,10837.0,6880.0,9893.0,-7.0,-4.0,-3.0,1.0,-3.0,3.0,0.0,-2.0,0.1961078643798828
83,2.0,-15.0,8.0,1.0,2397.0,10838.0,6881.0,9892.0,-7.0,-4.0,-3.0,1.0,-3.0,3.0,0.0,-2.0,0.1983492374420166
84,2.0,-15.0,8.0,1.0,2397.0,10838.0,6881.0,9892.0,-4.0,-8.0,-4.0,2.0,1.0,3.0,1.0,2.0,0.20066285133361816
85,2.0,-15.0,8.0,1.0,2397.0,10838.0,6881.0,9892.0,5.0,-10.0,-8.0,0.0,0.0,-1.0,0.0,1.0,0.20297718048095703
86,-9.0,-7.0,13.0,1.0,2398.0,10838.0,6881.0,9892.0,5.0,-10.0,-8.0,0.0,0.0,-1.0,0.0,1.0,0.20528006553649902
87,-9.0,-7.0,13.0,1.0,2398.0,10838.0,6881.0,9892.0,1.0,-15.0,-22.0,-2.0,11.0,-1.0,8.0,0.0,0.20759320259094238
88,-9.0,-7.0,13.0,1.0,2398.0,10838.0,6881.0,9892.0,1.0,11.0,18.0,-2.0,-10.0,-4.0,-7.0,-2.0,0.21025776863098145
89,-13.0,-6.0,10.0,1.0,2398.0,10838.0,6882.0,9891.0,1.0,11.0,18.0,-2.0,-10.0,-4.0,-7.0,-2.0,0.21293020248413086
90,-13.0,-6.0,10.0,1.0,2398.0,10838.0,6882.0,9891.0,9.0,10.0,21.0,5.0,9.0,5.0,3.0,3.0,0.2153911590576172
91,-13.0,-6.0,10.0,1.0,2398.0,10838.0,6882.0,9891.0,7.0,5.0,6.0,0.0,-10.0,-1.0,0.0,-3.0,0.2176513671875
92,-16.0,-10.0,10.0,1.0,2399.0,10838.0,6883.0,9890.0,7.0,5.0,6.0,0.0,-10.0,-1.0,0.0,-3.0,0.22000765800476074
93,-16.0,-10.0,10.0,1.0,2399.0,10838.0,6883.0,9890.0,0.0,-8.0,-9.0,-2.0,3.0,4.0,10.0,-6.0,0.22234392166137695
94,-16.0,-10.0,10.0,1.0,2399.0,10838.0,6883.0,9890.0,4.0,15.0,-16.0,-7.0,-5.0,-6.0,-8.0,-1.0,0.22459888458251953
95,-11.0,-15.0,10.0,1.0,2399.0,10838.0,6883.0,9890.0,4.0,15.0,-16.0,-7.0,-5.0,-6.0,-8.0,-1.0,0.22686505317687988
96,-11.0,-15.0,10.0,1.0,2399.0,10838.0,6883.0,9890.0,-11.0,-8.0,9.0,-5.0,-5.0,-7.0,-13.0,-2.0,0.22923588752746582
97,-11.0,-15.0,10.0,1.0,2399.0,10838.0,6883.0,9890.0,-6.0,-12.0,-6.0,-1.0,4.0,3.0,6.0,-1.0,0.23151254653930664
98,-27.0,-9.0,1.0,1.0,2405.0,10839.0,6882.0,9888.0,-6.0,-12.0,-6.0,-1.0,4.0,3.0,6.0,-1.0,0.2337946891784668
99,-27.0,-9.0,1.0,1.0,2405.0,10839.0,6882.0,9888.0,-5.0,3.0,-11.0,4.0,9.0,11.0,5.0,2.0,0.23634552955627441
100,-27.0,-9.0,1.0,1.0,2405.0,10839.0,6882.0,9888.0,5.0,2.0,-6.0,-3.0,-14.0,-11.0,-17.0,0.0,0.2386007308959961
101,-52.0,0.0,4.0,1.0,2412.0,10838.0,6879.0,9890.0,5.0,2.0,-6.0,-3.0,-14.0,-11.0,-17.0,0.0,0.24122309684753418
102,-52.0,0.0,4.0,1.0,2412.0,10838.0,6879.0,9890.0,13.0,17.0,15.0,1.0,-4.0,-5.0,-2.0,1.0,0.2438962459564209
103,-52.0,0.0,4.0,1.0,2412.0,10838.0,6879.0,9890.0,6.0,-8.0,-21.0,0.0,6.0,4.0,4.0,7.0,0.24624013900756836
104,-38.0,-8.0,6.0,1.0,2417.0,10839.0,6875.0,9890.0,6.0,-8.0,-21.0,0.0,6.0,4.0,4.0,7.0,0.24851107597351074
105,-38.0,-8.0,6.0,1.0,2417.0,10839.0,6875.0,9890.0,-10.0,-5.0,-19.0,-5.0,-3.0,-4.0,-7.0,-12.0,0.2509646415710449
106,-38.0,-8.0,6.0,1.0,2417.0,10839.0,6875.0,9890.0,3.0,21.0,20.0,5.0,0.0,2.0,4.0,1.0,0.25327277183532715
107,-30.0,-7.0,7.0,1.0,2420.0,10841.0,6873.0,9888.0,3.0,21.0,20.0,5.0,0.0,2.0,4.0,1.0,0.25554490089416504
108,-30.0,-7.0,7.0,1.0,2420.0,10841.0,6873.0,9888.0,-10.0,-22.0,0.0,-2.0,11.0,-3.0,-16.0,-2.0,0.2579174041748047
109,-30.0,-7.0,7.0,1.0,2420.0,10841.0,6873.0,9888.0,-6.0,-8.0,-11.0,-11.0,-35.0,-4.0,3.0,-2.0,0.26017069816589355
110,-35.0,-4.0,13.0,1.0,2424.0,10843.0,6870.0,9888.0,-6.0,-8.0,-11.0,-11.0,-35.0,-4.0,3.0,-2.0,0.2624092102050781
111,-35.0,-4.0,13.0,1.0,2424.0,10843.0,6870.0,9888.0,0.0,1.0,-5.0,2.0,-11.0,-1.0,6.0,-1.0,0.2647535800933838
112,-35.0,-4.0,13.0,1.0,2424.0,10843.0,6870.0,9888.0,-5.0,-4.0,-6.0,7.0,6.0,4.0,10.0,0.0,0.2670576572418213
113,-40.0,-4.0,7.0,1.0,2429.0,10844.0,6867.0,9888.0,-5.0,-4.0,-6.0,7.0,6.0,4.0,10.0,0.0,0.26932263374328613
114,-40.0,-4.0,7.0,1.0,2429.0,10844.0,6867.0,9888.0,3.0,2.0,1.0,-2.0,13.0,5.0,8.0,0.0,0.2716708183288574
115,-40.0,-4.0,7.0,1.0,2429.0,10844.0,6867.0,9888.0,-5.0,-13.0,-18.0,-6.0,-8.0,-8.0,-7.0,-8.0,0.2746758460998535
116,-40.0,1.0,18.0,1.0,2432.0,10845.0,6862.0,9889.0,-5.0,-13.0,-18.0,-6.0,-8.0,-8.0,-7.0,-8.0,0.2772245407104492
117,-40.0,1.0,18.0,1.0,2432.0,10845.0,6862.0,9889.0,6.0,-4.0,14.0,0.0,-4.0,4.0,0.0,7.0,0.27959346771240234
118,-40.0,1.0,18.0,1.0,2432.0,10845.0,6862.0,9889.0,-2.0,-2.0,32.0,8.0,19.0,9.0,12.0,-2.0,0.28188610076904297
119,-47.0,9.0,17.0,1.0,2436.0,10845.0,6856.0,9892.0,-2.0,-2.0,32.0,8.0,19.0,9.0,12.0,-2.0,0.28426432609558105
120,-47.0,9.0,17.0,1.0,2436.0,10845.0,6856.0,9892.0,-4.0,-5.0,0.0,-2.0,-30.0,-12.0,-20.0,-5.0,0.2865946292877197
121,-47.0,9.0,17.0,1.0,2436.0,10845.0,6856.0,9892.0,-8.0,-5.0,-2.0,-6.0,-2.0,-3.0,-10.0,-5.0,0.28891754150390625
122,-41.0,8.0,17.0,1.0,2438.0,10845.0,6852.0,9894.0,-8.0,-5.0,-2.0,-6.0,-2.0,-3.0,-10.0,-5.0,0.291154146194458
123,-41.0,8.0,17.0,1.0,2438.0,10845.0,6852.0,9894.0,7.0,24.0,17.0,1.0,10.0,5.0,11.0,5.0,0.2934739589691162
124,-41.0,8.0,17.0,1.0,2438.0,10845.0,6852.0,9894.0,-3.0,1.0,-2.0,1.0,7.0,1.0,-9.0,-1.0,0.29576706886291504
125,-38.0,9.0,9.0,1.0,2441.0,10844.0,6848.0,9897.0,-3.0,1.0,-2.0,1.0,7.0,1.0,-9.0,-1.0,0.29801416397094727
126,-38.0,9.0,9.0,1.0,2441.0,10844.0,6848.0,9897.0,1.0,8.0,-9.0,0.0,2.0,0.0,1.0,2.0,0.30041956901550293
127,-38.0,9.0,9.0,1.0,2441.0,10844.0,6848.0,9897.0,5.0,-6.0,2.0,-1.0,-11.0,-2.0,4.0,-2.0,0.3026895523071289
128,-25.0,11.0,5.0,1.0,2443.0,10844.0,6847.0,9897.0,5.0,-6.0,2.0,-1.0,-11.0,-2.0,4.0,-2.0,0.30551791191101074
129,-25.0,11.0,5.0,1.0,2443.0,10844.0,6847.0,9897.0,-1.0,-3.0,-2.0,-1.0,-9.0,-3.0,-4.0,-2.0,0.3081319332122803
130,-25.0,11.0,5.0,1.0,2443.0,10844.0,6847.0,9897.0,-5.0,-6.0,-10.0,2.0,10.0,4.0,2.0,1.0,0.31040477752685547
131,-40.0,6.0,6.0,1.0,2448.0,10844.0,6845.0,9898.0,-5.0,-6.0,-10.0,2.0,10.0,4.0,2.0,1.0,0.31273770332336426
132,-40.0,6.0,6.0,1.0,2448.0,10844.0,6845.0,9898.0,-5.0,-5.0,-11.0,-5.0,2.0,-2.0,0.0,-3.0,0.315049409866333
133,-40.0,6.0,6.0,1.0,2448.0,10844.0,6845.0,9898.0,9.0,16.0,-2.0,-4.0,-18.0,-4.0,-6.0,3.0,0.31741762161254883
134,-40.0,9.0,8.0,1.0,2454.0,10841.0,6841.0,9903.0,9.0,16.0,-2.0,-4.0,-18.0,-4.0,-6.0,3.0,0.31969189643859863
135,-40.0,9.0,8.0,1.0,2454.0,10841.0,6841.0,9903.0,-7.0,-9.0,-14.0,-2.0,7.0,-1.0,1.0,-5.0,0.3220524787902832
136,-40.0,9.0,8.0,1.0,2454.0,10841.0,6841.0,9903.0,1.0,1.0,8.0,-2.0,8.0,-3.0,-2.0,7.0,0.32434511184692383
137,-45.0,14.0,11.0,1.0,2459.0,10839.0,6837.0,9906.0,1.0,1.0,8.0,-2.0,8.0,-3.0,-2.0,7.0,0.32660651206970215
138,-45.0,14.0,11.0,1.0,2459.0,10839.0,6837.0,9906.0,0.0,-5.0,22.0,-2.0,-4.0,-2.0,-1.0,-1.0,0.32892751693725586
139,-45.0,14.0,11.0,1.0,2459.0,10839.0,6837.0,9906.0,-6.0,0.0,0.0,1.0,10.0,4.0,2.0,-5.0,0.33116650581359863
140,-52.0,12.0,6.0,1.0,2465.0,10837.0,6833.0,9910.0,-6.0,0.0,0.0,1.0,10.0,4.0,2.0,-5.0,0.3335123062133789
141,-52.0,12.0,6.0,1.0,2465.0,10837.0,6833.0,9910.0,7.0,3.0,-6.0,0.0,-3.0,5.0,7.0,4.0,0.3364379405975342
142,-52.0,12.0,6.0,1.0,2465.0,10837.0,6833.0,9910.0,-1.0,11.0,28.0,5.0,12.0,1.0,-3.0,-2.0,0.33903026580810547
143,-50.0,10.0,6.0,1.0,2470.0,10835.0,6829.0,9913.0,-1.0,11.0,28.0,5.0,12.0,1.0,-3.0,-2.0,0.3413105010986328
144,-50.0,10.0,6.0,1.0,2470.0,10835.0,6829.0,9913.0,1.0,4.0,-1.0,1.0,0.0,-3.0,4.0,-1.0,0.3438231945037842
145,-50.0,10.0,6.0,1.0,2470.0,10835.0,6829.0,9913.0,-4.0,-7.0,-2.0,0.0,-7.0,-1.0,3.0,2.0,0.34633421897888184
146,-45.0,17.0,2.0,1.0,2475.0,10834.0,6828.0,9913.0,-4.0,-7.0,-2.0,0.0,-7.0,-1.0,3.0,2.0,0.34883761405944824
147,-45.0,17.0,2.0,1.0,2475.0,10834.0,6828.0,9913.0,13.0,17.0,5.0,-2.0,-1.0,4.0,15.0,7.0,0.3512265682220459
148,-45.0,17.0,2.0,1.0,2475.0,10834.0,6828.0,9913.0,3.0,0.0,-9.0,0.0,-22.0,-15.0,-25.0,-3.0,0.3535153865814209
149,-31.0,15.0,-8.0,1.0,2480.0,10833.0,6829.0,9913.0,3.0,0.0,-9.0,0.0,-22.0,-15.0,-25.0,-3.0,0.35587239265441895
150,-31.0,15.0,-8.0,1.0,2480.0,10833.0,6829.0,9913.0,-9.0,-14.0,-13.0,-1.0,-2.0,-2.0,-7.0,-4.0,0.35831260681152344
151,-31.0,15.0,-8.0,1.0,2480.0,10833.0,6829.0,9913.0,0.0,-3.0,2.0,0.0,13.0,6.0,15.0,1.0,0.36057066917419434
152,-24.0,9.0,-16.0,1.0,2484.0,10831.0,6831.0,9912.0,0.0,-3.0,2.0,0.0,13.0,6.0,15.0,1.0,0.362821102142334
153,-24.0,9.0,-16.0,1.0,2484.0,10831.0,6831.0,9912.0,-6.0,-6.0,1.0,2.0,-4.0,3.0,-1.0,-8.0,0.3654475212097168
154,-24.0,9.0,-16.0,1.0,2484.0,10831.0,6831.0,9912.0,0.0,-14.0,-24.0,-1.0,-9.0,-3.0,-9.0,0.0,0.3681349754333496
155,8.0,1.0,-20.0,1.0,2486.0,10831.0,6836.0,9908.0,0.0,-14.0,-24.0,-1.0,-9.0,-3.0,-9.0,0.0,0.3707764148712158
156,8.0,1.0,-20.0,1.0,2486.0,10831.0,6836.0,9908.0,-9.0,-8.0,4.0,-1.0,-10.0,-6.0,-7.0,-5.0,0.373276948928833
157,8.0,1.0,-20.0,1.0,2486.0,10831.0,6836.0,9908.0,2.0,2.0,-41.0,-11.0,5.0,2.0,-1.0,3.0,0.37554931640625
158,4.0,5.0,-25.0,1.0,2488.0,10830.0,6842.0,9906.0,2.0,2.0,-41.0,-11.0,5.0,2.0,-1.0,3.0,0.37784671783447266
159,4.0,5.0,-25.0,1.0,2488.0,10830.0,6842.0,9906.0,2.0,13.0,25.0,0.0,1.0,-3.0,-4.0,3.0,0.380281925201416
160,4.0,5.0,-25.0,1.0,2488.0,10830.0,6842.0,9906.0,1.0,-4.0,20.0,6.0,6.0,1.0,6.0,2.0,0.3825976848602295
161,-6.0,3.0,-26.0,1.0,2492.0,10829.0,6846.0,9902.0,1.0,-4.0,20.0,6.0,6.0,1.0,6.0,2.0,0.38487768173217773
162,-6.0,3.0,-26.0,1.0,2492.0,10829.0,6846.0,9902.0,-6.0,1.0,-12.0,-1.0,2.0,0.0,0.0,-3.0,0.38721370697021484
163,-6.0,3.0,-26.0,1.0,2492.0,10829.0,6846.0,9902.0,-2.0,-4.0,-7.0,-4.0,-2.0,-1.0,-16.0,-10.0,0.3895111083984375
164,10.0,-7.0,-20.0,1.0,2493.0,10830.0,6852.0,9897.0,-2.0,-4.0,-7.0,-4.0,-2.0,-1.0,-16.0,-10.0,0.39176487922668457
165,10.0,-7.0,-20.0,1.0,2493.0,10830.0,6852.0,9897.0,6.0,-8.0,-15.0,-3.0,-2.0,-4.0,-2.0,-2.0,0.3941636085510254
166,10.0,-7.0,-20.0,1.0,2493.0,10830.0,6852.0,9897.0,4.0,5.0,-1.0,-1.0,12.0,1.0,10.0,6.0,0.3967118263244629
167,14.0,-1.0,-24.0,1.0,2494.0,10831.0,6858.0,9891.0,4.0,5.0,-1.0,-1.0,12.0,1.0,10.0,6.0,0.39938998222351074
168,14.0,-1.0,-24.0,1.0,2494.0,10831.0,6858.0,9891.0,-3.0,2.0,8.0,0.0,-1.0,5.0,-7.0,2.0,0.4021127223968506
169,14.0,-1.0,-24.0,1.0,2494.0,10831.0,6858.0,9891.0,-10.0,-9.0,20.0,3.0,-7.0,-1.0,-6.0,-8.0,0.4044322967529297
170,6.0,-2.0,-25.0,1.0,2497.0,10831.0,6864.0,9887.0,-10.0,-9.0,20.0,3.0,-7.0,-1.0,-6.0,-8.0,0.4067065715789795
171,6.0,-2.0,-25.0,1.0,2497.0,10831.0,6864.0,9887.0,-2.0,-11.0,10.0,4.0,0.0,-9.0,2.0,1.0,0.40914392471313477
172,6.0,-2.0,-25.0,1.0,2497.0,10831.0,6864.0,9887.0,-1.0,5.0,26.0,-4.0,4.0,3.0,4.0,2.0,0.4114365577697754
173,-3.0,-1.0,-26.0,1.0,2501.0,10829.0,6868.0,9885.0,-1.0,5.0,26.0,-4.0,4.0,3.0,4.0,2.0,0.4137856960296631
174,-3.0,-1.0,-26.0,1.0,2501.0,10829.0,6868.0,9885.0,-5.0,-8.0,-25.0,-4.0,-1.0,-2.0,-7.0,-4.0,0.41619443893432617
175,-3.0,-1.0,-26.0,1.0,2501.0,10829.0,6868.0,9885.0,5.0,12.0,14.0,0.0,-3.0,-1.0,7.0,-1.0,0.4184596538543701
176,35.0,11.0,-19.0,1.0,2497.0,10829.0,6875.0,9881.0,5.0,12.0,14.0,0.0,-3.0,-1.0,7.0,-1.0,0.4207580089569092
177,35.0,11.0,-19.0,1.0,2497.0,10829.0,6875.0,9881.0,-8.0,-9.0,-4.0,0.0,1.0,-1.0,-1.0,-3.0,0.4230988025665283
178,35.0,11.0,-19.0,1.0,2497.0,10829.0,6875.0,9881.0,-2.0,-4.0,1.0,4.0,6.0,6.0,7.0,2.0,0.42537713050842285
179,45.0,5.0,-15.0,1.0,2494.0,10829.0,6884.0,9876.0,-2.0,-4.0,1.0,4.0,6.0,6.0,7.0,2.0,0.43307065963745117
180,45.0,5.0,-15.0,1.0,2494.0,10829.0,6884.0,9876.0,11.0,40.0,18.0,-7.0,-3.0,-3.0,-16.0,3.0,0.44843316078186035
181,45.0,5.0,-15.0,1.0,2494.0,10829.0,6884.0,9876.0,2.0,5.0,2.0,-2.0,-3.0,-9.0,-13.0,-3.0,0.4507100582122803
182,39.0,4.0,-8.0,1.0,2490.0,10830.0,6890.0,9872.0,2.0,5.0,2.0,-2.0,-3.0,-9.0,-13.0,-3.0,0.4564855098724365
183,39.0,4.0,-8.0,1.0,2490.0,10830.0,6890.0,9872.0,-4.0,-14.0,-8.0,2.0,4.0,2.0,9.0,1.0,0.4588446617126465
184,39.0,4.0,-8.0,1.0,2490.0,10830.0,6890.0,9872.0,-1.0,-12.0,-2.0,6.0,-1.0,1.0,2.0,0.0,0.461669921875
185,22.0,12.0,1.0,1.0,2487.0,10829.0,6894.0,9870.0,-1.0,-12.0,-2.0,6.0,-1.0,1.0,2.0,0.0,0.4698472023010254
186,22.0,12.0,1.0,1.0,2487.0,10829.0,6894.0,9870.0,8.0,3.0,4.0,0.0,5.0,-1.0,5.0,7.0,0.4782533645629883
187,22.0,12.0,1.0,1.0,2487.0,10829.0,6894.0,9870.0,-5.0,-6.0,-32.0,-12.0,-18.0,-9.0,-7.0,-5.0,0.48052144050598145
188,28.0,12.0,11.0,1.0,2481.0,10830.0,6896.0,9870.0,-5.0,-6.0,-32.0,-12.0,-18.0,-9.0,-7.0,-5.0,0.49417567253112793
189,28.0,12.0,11.0,1.0,2481.0,10830.0,6896.0,9870.0,-7.0,-12.0,-2.0,-1.0,10.0,1.0,3.0,-5.0,0.4969310760498047
190,28.0,12.0,11.0,1.0,2481.0,10830.0,6896.0,9870.0,-1.0,6.0,26.0,6.0,9.0,0.0,8.0,-4.0,0.4991939067840576
191,53.0,13.0,14.0,1.0,2474.0,10829.0,6901.0,9869.0,-1.0,6.0,26.0,6.0,9.0,0.0,8.0,-4.0,0.5162703990936279
192,53.0,13.0,14.0,1.0,2474.0,10829.0,6901.0,9869.0,5.0,-1.0,-16.0,-5.0,-2.0,1.0,1.0,1.0,0.5212562084197998
193,53.0,13.0,14.0,1.0,2474.0,10829.0,6901.0,9869.0,-2.0,2.0,-8.0,-4.0,6.0,8.0,0.0,2.0,0.5243597030639648
194,58.0,24.0,16.0,1.0,2467.0,10828.0,6908.0,9866.0,-2.0,2.0,-8.0,-4.0,6.0,8.0,0.0,2.0,0.5296051502227783
195,58.0,24.0,16.0,1.0,2467.0,10828.0,6908.0,9866.0,-5.0,-4.0,-1.0,-4.0,-26.0,-18.0,-34.0,-1.0,0.5380966663360596
196,58.0,24.0,16.0,1.0,2467.0,10828.0,6908.0,9866.0,-2.0,-5.0,-10.0,1.0,-11.0,-3.0,-6.0,-1.0,0.5403873920440674
197,35.0,19.0,23.0,1.0,2462.0,10827.0,6912.0,9865.0,-2.0,-5.0,-10.0,1.0,-11.0,-3.0,-6.0,-1.0,0.5541250705718994
198,35.0,19.0,23.0,1.0,2462.0,10827.0,6912.0,9865.0,8.0,4.0,36.0,-1.0,2.0,4.0,12.0,0.0,0.5568249225616455
199,35.0,19.0,23.0,1.0,2462.0,10827.0,6912.0,9865.0,8.0,-1.0,-7.0,-2.0,-3.0,1.0,3.0,3.0,0.5593388080596924
200,17.0,15.0,16.0,1.0,2459.0,10827.0,6914.0,9866.0,8.0,-1.0,-7.0,-2.0,-3.0,1.0,3.0,3.0,0.5762670040130615
201,17.0,15.0,16.0,1.0,2459.0,10827.0,6914.0,9866.0,-13.0,-11.0,-5.0,2.0,-1.0,0.0,2.0,-6.0,0.578798770904541
202,17.0,15.0,16.0,1.0,2459.0,10827.0,6914.0,9866.0,-9.0,-15.0,-12.0,0.0,8.0,-1.0,6.0,-7.0,0.5810739994049072
203,7.0,12.0,17.0,1.0,2458.0,10827.0,6916.0,9865.0,-9.0,-15.0,-12.0,0.0,8.0,-1.0,6.0,-7.0,0.5905742645263672
204,7.0,12.0,17.0,1.0,2458.0,10827.0,6916.0,9865.0,19.0,-11.0,-61.0,-6.0,-2.0,10.0,32.0,13.0,0.598757266998291
205,7.0,12.0,17.0,1.0,2458.0,10827.0,6916.0,9865.0,-1.0,0.0,-16.0,-5.0,2.0,-2.0,-5.0,0.0,0.6050910949707031
206,0.0,20.0,16.0,1.0,2456.0,10826.0,6916.0,9866.0,-1.0,0.0,-16.0,-5.0,2.0,-2.0,-5.0,0.0,0.6146607398986816
207,0.0,20.0,16.0,1.0,2456.0,10826.0,6916.0,9866.0,-6.0,3.0,28.0,3.0,3.0,2.0,-7.0,-8.0,0.6193506717681885
208,0.0,20.0,16.0,1.0,2456.0,10826.0,6916.0,9866.0,-13.0,-13.0,12.0,6.0,-1.0,1.0,3.0,-3.0,0.6238007545471191
209,12.0,11.0,17.0,1.0,2452.0,10827.0,6917.0,9865.0,-13.0,-13.0,12.0,6.0,-1.0,1.0,3.0,-3.0,0.6362452507019043
210,12.0,11.0,17.0,1.0,2452.0,10827.0,6917.0,9865.0,1.0,3.0,30.0,8.0,12.0,1.0,-6.0,3.0,0.6403396129608154
211,12.0,11.0,17.0,1.0,2452.0,10827.0,6917.0,9865.0,5.0,12.0,16.0,-2.0,-12.0,-4.0,-4.0,-3.0,0.6442828178405762
212,21.0,18.0,12.0,1.0,2448.0,10827.0,6920.0,9865.0,5.0,12.0,16.0,-2.0,-12.0,-4.0,-4.0,-3.0,0.6507930755615234
213,21.0,18.0,12.0,1.0,2448.0,10827.0,6920.0,9865.0,-7.0,-11.0,-19.0,-1.0,-14.0,-5.0,-1.0,-3.0,0.658203125
214,21.0,18.0,12.0,1.0,2448.0,10827.0,6920.0,9865.0,3.0,-2.0,-5.0,0.0,1.0,1.0,1.0,3.0,0.6605217456817627
215,26.0,9.0,15.0,1.0,2443.0,10828.0,6921.0,9863.0,3.0,-2.0,-5.0,0.0,1.0,1.0,1.0,3.0,0.6823334693908691
216,26.0,9.0,15.0,1.0,2443.0,10828.0,6921.0,9863.0,-8.0,5.0,7.0,2.0,4.0,1.0,1.0,-7.0,0.687309980392456
217,26.0,9.0,15.0,1.0,2443.0,10828.0,6921.0,9863.0,14.0,36.0,24.0,-1.0,3.0,5.0,22.0,13.0,0.691594123840332
218,16.0,13.0,6.0,1.0,2441.0,10828.0,6925.0,9862.0,14.0,36.0,24.0,-1.0,3.0,5.0,22.0,13.0,0.6961584091186523
219,16.0,13.0,6.0,1.0,2441.0,10828.0,6925.0,9862.0,-1.0,5.0,-6.0,-8.0,-13.0,-8.0,-4.0,-3.0,0.6987490653991699
220,16.0,13.0,6.0,1.0,2441.0,10828.0,6925.0,9862.0,-7.0,-12.0,0.0,1.0,-4.0,-1.0,-5.0,-8.0,0.7010746002197266
221,17.0,15.0,6.0,1.0,2438.0,10827.0,6928.0,9861.0,-7.0,-12.0,0.0,1.0,-4.0,-1.0,-5.0,-8.0,0.70963454246521
222,17.0,15.0,6.0,1.0,2438.0,10827.0,6928.0,9861.0,0.0,3.0,-16.0,-2.0,3.0,2.0,-4.0,2.0,0.7271549701690674
223,17.0,15.0,6.0,1.0,2438.0,10827.0,6928.0,9861.0,-3.0,6.0,0.0,0.0,0.0,3.0,10.0,0.0,0.7316856384277344
224,35.0,12.0,15.0,1.0,2434.0,10828.0,6933.0,9858.0,-3.0,6.0,0.0,0.0,0.0,3.0,10.0,0.0,0.7361843585968018
225,35.0,12.0,15.0,1.0,2434.0,10828.0,6933.0,9858.0,-3.0,-9.0,-19.0,-5.0,-25.0,-6.0,12.0,-5.0,0.7389125823974609
226,35.0,12.0,15.0,1.0,2434.0,10828.0,6933.0,9858.0,1.0,5.0,-32.0,-7.0,5.0,-6.0,-24.0,3.0,0.7411885261535645
227,25.0,14.0,16.0,1.0,2431.0,10828.0,6938.0,9855.0,1.0,5.0,-32.0,-7.0,5.0,-6.0,-24.0,3.0,0.7562313079833984
228,25.0,14.0,16.0,1.0,2431.0,10828.0,6938.0,9855.0,2.0,10.0,12.0,2.0,8.0,7.0,12.0,-1.0,0.7586021423339844
229,25.0,14.0,16.0,1.0,2431.0,10828.0,6938.0,9855.0,4.0,-3.0,10.0,0.0,5.0,-1.0,3.0,-2.0,0.7608790397644043
230,11.0,14.0,6.0,1.0,2432.0,10828.0,6938.0,9855.0,4.0,-3.0,10.0,0.0,5.0,-1.0,3.0,-2.0,0.7694423198699951
231,11.0,14.0,6.0,1.0,2432.0,10828.0,6938.0,9855.0,2.0,-9.0,-12.0,-2.0,21.0,10.0,-10.0,-2.0,0.7784795761108398
232,11.0,14.0,6.0,1.0,2432.0,10828.0,6938.0,9855.0,-3.0,-8.0,5.0,0.0,6.0,1.0,12.0,7.0,0.781282901763916
233,35.0,4.0,-1.0,1.0,2429.0,10827.0,6944.0,9852.0,-3.0,-8.0,5.0,0.0,6.0,1.0,12.0,7.0,0.7950758934020996
234,35.0,4.0,-1.0,1.0,2429.0,10827.0,6944.0,9852.0,0.0,1.0,0.0,3.0,-15.0,-2.0,-1.0,2.0,0.7994282245635986
235,35.0,4.0,-1.0,1.0,2429.0,10827.0,6944.0,9852.0,1.0,-8.0,-8.0,-1.0,3.0,-6.0,-12.0,-5.0,0.8036589622497559
236,45.0,1.0,-12.0,1.0,2428.0,10826.0,6952.0,9848.0,1.0,-8.0,-8.0,-1.0,3.0,-6.0,-12.0,-5.0,0.8165369033813477
237,45.0,1.0,-12.0,1.0,2428.0,10826.0,6952.0,9848.0,-6.0,2.0,-3.0,-4.0,8.0,6.0,3.0,0.0,0.8211925029754639
238,45.0,1.0,-12.0,1.0,2428.0,10826.0,6952.0,9848.0,3.0,1.0,4.0,-1.0,-23.0,-6.0,-4.0,3.0,0.8256993293762207
239,20.0,-1.0,-32.0,1.0,2431.0,10822.0,6958.0,9846.0,3.0,1.0,4.0,-1.0,-23.0,-6.0,-4.0,3.0,0.8302514553070068
240,20.0,-1.0,-32.0,1.0,2431.0,10822.0,6958.0,9846.0,-6.0,-2.0,5.0,1.0,9.0,1.0,-11.0,-4.0,0.8381690979003906
241,20.0,-1.0,-32.0,1.0,2431.0,10822.0,6958.0,9846.0,-13.0,-8.0,9.0,-6.0,-13.0,-5.0,-6.0,-7.0,0.8411626815795898
242,52.0,13.0,-72.0,1.0,2432.0,10816.0,6972.0,9844.0,-13.0,-8.0,9.0,-6.0,-13.0,-5.0,-6.0,-7.0,0.8562045097351074
243,52.0,13.0,-72.0,1.0,2432.0,10816.0,6972.0,9844.0,3.0,19.0,19.0,2.0,3.0,1.0,9.0,4.0,0.8606843948364258
244,52.0,13.0,-72.0,1.0,2432.0,10816.0,6972.0,9844.0,-9.0,3.0,5.0,3.0,1.0,1.0,-1.0,-3.0,0.8645293712615967
245,127.0,14.0,-125.0,1.0,2430.0,10806.0,7000.0,9835.0,-9.0,3.0,5.0,3.0,1.0,1.0,-1.0,-3.0,0.8765640258789062
246,127.0,14.0,-125.0,1.0,2430.0,10806.0,7000.0,9835.0,6.0,1.0,-17.0,-3.0,11.0,0.0,28.0,6.0,0.8806819915771484
247,127.0,14.0,-125.0,1.0,2430.0,10806.0,7000.0,9835.0,14.0,-2.0,24.0,5.0,-3.0,0.0,-5.0,2.0,0.8846457004547119
248,211.0,-9.0,-222.0,1.0,2429.0,10794.0,7046.0,9815.0,14.0,-2.0,24.0,5.0,-3.0,0.0,-5.0,2.0,0.8986995220184326
249,211.0,-9.0,-222.0,1.0,2429.0,10794.0,7046.0,9815.0,-13.0,-30.0,-18.0,-12.0,-29.0,-29.0,-14.0,-9.0,0.9010601043701172
250,211.0,-9.0,-222.0,1.0,2429.0,10794.0,7046.0,9815.0,-2.0,-6.0,-9.0,2.0,15.0,14.0,28.0,3.0,0.9039609432220459
251,316.0,-47.0,-341.0,1.0,2427.0,10779.0,7111.0,9786.0,-2.0,-6.0,-9.0,2.0,15.0,14.0,28.0,3.0,0.9134771823883057
252,316.0,-47.0,-341.0,1.0,2427.0,10779.0,7111.0,9786.0,5.0,12.0,22.0,-22.0,11.0,4.0,-9.0,1.0,0.9158308506011963
253,316.0,-47.0,-341.0,1.0,2427.0,10779.0,7111.0,9786.0,0.0,-19.0,-60.0,-40.0,-73.0,-37.0,0.0,5.0,0.9200088977813721
254,389.0,-52.0,-538.0,1.0,2433.0,10751.0,7201.0,9750.0,0.0,-19.0,-60.0,-40.0,-73.0,-37.0,0.0,5.0,0.9368183612823486
255,389.0,-52.0,-538.0,1.0,2433.0,10751.0,7201.0,9750.0,3.0,-8.0,47.0,35.0,54.0,-25.0,-49.0,6.0,0.9395589828491211
256,389.0,-52.0,-538.0,1.0,2433.0,10751.0,7201.0,9750.0,32.0,41.0,-3.0,5.0,24.0,10.0,7.0,31.0,0.9419348239898682
257,528.0,-68.0,-803.0,1.0,2448.0,10709.0,7334.0,9692.0,32.0,41.0,-3.0,5.0,24.0,10.0,7.0,31.0,0.9586195945739746
258,528.0,-68.0,-803.0,1.0,2448.0,10709.0,7334.0,9692.0,-22.0,-12.0,46.0,20.0,20.0,28.0,-10.0,-13.0,0.9632940292358398
259,528.0,-68.0,-803.0,1.0,2448.0,10709.0,7334.0,9692.0,18.0,7.0,-27.0,-22.0,-20.0,-12.0,-7.0,1.0,0.9686801433563232
260,498.0,-160.0,-1159.0,1.0,2529.0,10633.0,7508.0,9621.0,18.0,7.0,-27.0,-22.0,-20.0,-12.0,-7.0,1.0,0.9727799892425537
261,498.0,-160.0,-1159.0,1.0,2529.0,10633.0,7508.0,9621.0,46.0,87.0,-36.0,-35.0,-4.0,2.0,11.0,29.0,0.9751312732696533
262,498.0,-160.0,-1159.0,1.0,2529.0,10633.0,7508.0,9621.0,-28.0,-45.0,-66.0,9.0,1.0,26.0,-9.0,-18.0,0.9797623157501221
263,316.0,-247.0,-1567.0,1.0,2704.0,10510.0,7713.0,9548.0,-28.0,-45.0,-66.0,9.0,1.0,26.0,-9.0,-18.0,0.995513916015625
264,316.0,-247.0,-1567.0,1.0,2704.0,10510.0,7713.0,9548.0,-16.0,-31.0,-21.0,1.0,-22.0,3.0,15.0,-25.0,1.0055820941925049
265,316.0,-247.0,-1567.0,1.0,2704.0,10510.0,7713.0,9548.0,4.0,19.0,25.0,7.0,18.0,8.0,2.0,2.0,1.0097050666809082
266,-132.0,-366.0,-1673.0,1.0,2938.0,10390.0,7881.0,9472.0,4.0,19.0,25.0,7.0,18.0,8.0,2.0,2.0,1.0189955234527588
267,-132.0,-366.0,-1673.0,1.0,2938.0,10390.0,7881.0,9472.0,-10.0,-30.0,-39.0,11.0,-20.0,-3.0,-5.0,-4.0,1.0213751792907715
268,-132.0,-366.0,-1673.0,1.0,2938.0,10390.0,7881.0,9472.0,-20.0,-1.0,21.0,9.0,32.0,4.0,-13.0,-14.0,1.0236468315124512
269,-525.0,-511.0,-1682.0,1.0,3233.0,10265.0,8004.0,9409.0,-20.0,-1.0,21.0,9.0,32.0,4.0,-13.0,-14.0,1.0329704284667969
270,-525.0,-511.0,-1682.0,1.0,3233.0,10265.0,8004.0,9409.0,3.0,5.0,1.0,-11.0,-20.0,-8.0,-3.0,2.0,1.0407180786132812
271,-525.0,-511.0,-1682.0,1.0,3233.0,10265.0,8004.0,9409.0,-9.0,-15.0,25.0,9.0,5.0,-2.0,0.0,-9.0,1.04305100440979
272,-790.0,-545.0,-1678.0,1.0,3567.0,10125.0,8097.0,9360.0,-9.0,-15.0,25.0,9.0,5.0,-2.0,0.0,-9.0,1.0564615726470947
273,-790.0,-545.0,-1678.0,1.0,3567.0,10125.0,8097.0,9360.0,-17.0,-18.0,-68.0,-12.0,-13.0,1.0,2.0,-5.0,1.058800458908081
274,-790.0,-545.0,-1678.0,1.0,3567.0,10125.0,8097.0,9360.0,-2.0,-5.0,12.0,5.0,-6.0,-2.0,-4.0,2.0,1.0611464977264404
275,-1017.0,-406.0,-1684.0,1.0,3921.0,9951.0,8173.0,9339.0,-2.0,-5.0,12.0,5.0,-6.0,-2.0,-4.0,2.0,1.0787055492401123
276,-1017.0,-406.0,-1684.0,1.0,3921.0,9951.0,8173.0,9339.0,-10.0,-8.0,11.0,9.0,3.0,-2.0,-2.0,-4.0,1.0810620784759521
277,-1017.0,-406.0,-1684.0,1.0,3921.0,9951.0,8173.0,9339.0,10.0,-7.0,-8.0,0.0,-2.0,-5.0,1.0,4.0,1.0833983421325684
278,-1381.0,-441.0,-2014.0,1.0,4354.0,9724.0,8241.0,9327.0,10.0,-7.0,-8.0,0.0,-2.0,-5.0,1.0,4.0,1.0925369262695312
279,-1381.0,-441.0,-2014.0,1.0,4354.0,9724.0,8241.0,9327.0,28.0,-27.0,31.0,-1.0,-4.0,1.0,10.0,4.0,1.100693941116333
280,-1381.0,-441.0,-2014.0,1.0,4354.0,9724.0,8241.0,9327.0,34.0,66.0,27.0,2.0,-2.0,-2.0,-3.0,13.0,1.1029794216156006
281,-1657.0,-611.0,-2427.0,1.0,4828.0,9484.0,8297.0,9290.0,34.0,66.0,27.0,2.0,-2.0,-2.0,-3.0,13.0,1.117983102798462
282,-1657.0,-611.0,-2427.0,1.0,4828.0,9484.0,8297.0,9290.0,-1.0,6.0,16.0,3.0,-3.0,3.0,-1.0,-3.0,1.1222178936004639
283,-1657.0,-611.0,-2427.0,1.0,4828.0,9484.0,8297.0,9290.0,-10.0,-3.0,-7.0,-19.0,4.0,-1.0,-3.0,-15.0,1.1259400844573975
284,-2065.0,-904.0,-3060.0,1.0,5429.0,9182.0,8349.0,9215.0,-10.0,-3.0,-7.0,-19.0,4.0,-1.0,-3.0,-15.0,1.1403822898864746
285,-2065.0,-904.0,-3060.0,1.0,5429.0,9182.0,8349.0,9215.0,-27.0,1.0,-11.0,-5.0,-8.0,-8.0,0.0,-4.0,1.1451811790466309
286,-2065.0,-904.0,-3060.0,1.0,5429.0,9182.0,8349.0,9215.0,-15.0,-8.0,5.0,-10.0,-6.0,-7.0,-2.0,-8.0,1.1494770050048828
287,-2976.0,-1210.0,-3752.0,1.0,6206.0,8773.0,8342.0,9129.0,-15.0,-8.0,5.0,-10.0,-6.0,-7.0,-2.0,-8.0,1.1521754264831543
288,-2976.0,-1210.0,-3752.0,1.0,6206.0,8773.0,8342.0,9129.0,4.0,-14.0,17.0,-29.0,-7.0,2.0,0.0,-2.0,1.1611955165863037
289,-2976.0,-1210.0,-3752.0,1.0,6206.0,8773.0,8342.0,9129.0,3.0,26.0,22.0,22.0,3.0,3.0,0.0,1.0,1.163581371307373
290,-3994.0,-1283.0,-4152.0,1.0,7103.0,8235.0,8238.0,9070.0,3.0,26.0,22.0,22.0,3.0,3.0,0.0,1.0,1.175501823425293
291,-3994.0,-1283.0,-4152.0,1.0,7103.0,8235.0,8238.0,9070.0,6.0,4.0,1.0,14.0,5.0,7.0,1.0,1.0,1.1833348274230957
292,-3994.0,-1283.0,-4152.0,1.0,7103.0,8235.0,8238.0,9070.0,-19.0,-17.0,-2.0,19.0,-3.0,-6.0,-5.0,-6.0,1.1856176853179932
293,-4996.0,-1137.0,-4359.0,1.0,8064.0,7549.0,8026.0,9055.0,-19.0,-17.0,-2.0,19.0,-3.0,-6.0,-5.0,-6.0,1.2007298469543457
294,-4996.0,-1137.0,-4359.0,1.0,8064.0,7549.0,8026.0,9055.0,14.0,27.0,13.0,38.0,-1.0,-2.0,3.0,10.0,1.205674409866333
295,-4996.0,-1137.0,-4359.0,1.0,8064.0,7549.0,8026.0,9055.0,0.0,0.0,-28.0,-28.0,-12.0,-3.0,-3.0,-6.0,1.2098848819732666
296,-5860.0,-999.0,-4208.0,1.0,9021.0,6742.0,7681.0,9087.0,0.0,0.0,-28.0,-28.0,-12.0,-3.0,-3.0,-6.0,1.2123382091522217
297,-5860.0,-999.0,-4208.0,1.0,9021.0,6742.0,7681.0,9087.0,5.0,21.0,27.0,31.0,2.0,-4.0,2.0,2.0,1.2211024761199951
298,-5860.0,-999.0,-4208.0,1.0,9021.0,6742.0,7681.0,9087.0,-3.0,-6.0,8.0,6.0,3.0,3.0,0.0,2.0,1.22373366355896
299,-6357.0,-914.0,-3772.0,1.0,9906.0,5872.0,7215.0,9151.0,-3.0,-6.0,8.0,6.0,3.0,3.0,0.0,2.0,1.2368502616882324
300,-6357.0,-914.0,-3772.0,1.0,9906.0,5872.0,7215.0,9151.0,-12.0,-5.0,-14.0,-13.0,-3.0,4.0,0.0,-1.0,1.2392041683197021
301,-6357.0,-914.0,-3772.0,1.0,9906.0,5872.0,7215.0,9151.0,1.0,-9.0,3.0,34.0,0.0,-15.0,-3.0,3.0,1.2414774894714355
302,-6541.0,-622.0,-3189.0,1.0,10658.0,4961.0,6678.0,9252.0,1.0,-9.0,3.0,34.0,0.0,-15.0,-3.0,3.0,1.2585301399230957
303,-6541.0,-622.0,-3189.0,1.0,10658.0,4961.0,6678.0,9252.0,-4.0,-9.0,-15.0,-9.0,-29.0,-12.0,1.0,-3.0,1.2610211372375488
304,-6541.0,-622.0,-3189.0,1.0,10658.0,4961.0,6678.0,9252.0,0.0,-7.0,8.0,-37.0,-18.0,21.0,-18.0,-7.0,1.2632756233215332
305,-6629.0,-207.0,-2911.0,1.0,11291.0,3986.0,6123.0,9356.0,0.0,-7.0,8.0,-37.0,-18.0,21.0,-18.0,-7.0,1.2723274230957031
306,-6629.0,-207.0,-2911.0,1.0,11291.0,3986.0,6123.0,9356.0,2.0,-5.0,-10.0,9.0,39.0,27.0,5.0,13.0,1.2901182174682617
307,-6629.0,-207.0,-2911.0,1.0,11291.0,3986.0,6123.0,9356.0,-12.0,-4.0,-4.0,33.0,-37.0,-16.0,-13.0,-14.0,1.2945144176483154
308,-6594.0,267.0,-2862.0,1.0,11815.0,2947.0,5591.0,9427.0,-12.0,-4.0,-4.0,33.0,-37.0,-16.0,-13.0,-14.0,1.2987892627716064
309,-6594.0,267.0,-2862.0,1.0,11815.0,2947.0,5591.0,9427.0,-4.0,-5.0,-12.0,-40.0,11.0,19.0,-11.0,0.0,1.3022871017456055
310,-6594.0,267.0,-2862.0,1.0,11815.0,2947.0,5591.0,9427.0,-19.0,-22.0,-13.0,5.0,-34.0,-79.0,-14.0,-16.0,1.3045637607574463
311,-6352.0,471.0,-2744.0,1.0,12217.0,1956.0,5105.0,9448.0,-19.0,-22.0,-13.0,5.0,-34.0,-79.0,-14.0,-16.0,1.3197176456451416
312,-6352.0,471.0,-2744.0,1.0,12217.0,1956.0,5105.0,9448.0,9.0,7.0,14.0,-3.0,41.0,-29.0,-1.0,6.0,1.3222594261169434
313,-6352.0,471.0,-2744.0,1.0,12217.0,1956.0,5105.0,9448.0,-3.0,-2.0,-10.0,-63.0,109.0,79.0,28.0,1.0,1.3245353698730469
314,-6118.0,427.0,-2536.0,1.0,12537.0,993.0,4606.0,9436.0,-3.0,-2.0,-10.0,-63.0,109.0,79.0,28.0,1.0,1.3324246406555176
315,-6118.0,427.0,-2536.0,1.0,12537.0,993.0,4606.0,9436.0,-5.0,-1.0,2.0,68.0,-22.0,34.0,3.0,-3.0,1.342092752456665
316,-6118.0,427.0,-2536.0,1.0,12537.0,993.0,4606.0,9436.0,-1.0,-7.0,-10.0,12.0,86.0,-54.0,-29.0,11.0,1.3461029529571533
317,-6105.0,384.0,-2417.0,1.0,12789.0,24.0,4077.0,9393.0,-1.0,-7.0,-10.0,12.0,86.0,-54.0,-29.0,11.0,1.3560912609100342
318,-6105.0,384.0,-2417.0,1.0,12789.0,24.0,4077.0,9393.0,10.0,9.0,-10.0,95.0,67.0,-83.0,-27.0,-3.0,1.3585312366485596
319,-6105.0,384.0,-2417.0,1.0,12789.0,24.0,4077.0,9393.0,-6.0,-1.0,0.0,-30.0,42.0,-68.0,-71.0,-29.0,1.3608596324920654
320,-6053.0,862.0,-1863.0,1.0,12907.0,-986.0,3588.0,9379.0,-6.0,-1.0,0.0,-30.0,42.0,-68.0,-71.0,-29.0,1.379314661026001
321,-6053.0,862.0,-1863.0,1.0,12907.0,-986.0,3588.0,9379.0,-4.0,-3.0,0.0,-74.0,-128.0,-36.0,-25.0,-7.0,1.3837590217590332
322,-6053.0,862.0,-1863.0,1.0,12907.0,-986.0,3588.0,9379.0,-9.0,-21.0,-24.0,-57.0,60.0,88.0,73.0,11.0,1.3878557682037354
323,-5235.0,1579.0,-1489.0,1.0,12917.0,-1939.0,3253.0,9339.0,-9.0,-21.0,-24.0,-57.0,60.0,88.0,73.0,11.0,1.392716884613037
324,-5235.0,1579.0,-1489.0,1.0,12917.0,-1939.0,3253.0,9339.0,-1.0,-7.0,-3.0,-19.0,70.0,-38.0,80.0,62.0,1.4005179405212402
325,-5235.0,1579.0,-1489.0,1.0,12917.0,-1939.0,3253.0,9339.0,18.0,11.0,22.0,-35.0,18.0,-3.0,127.0,-5.0,1.4027769565582275
326,-4456.0,1978.0,-1946.0,1.0,12930.0,-2833.0,3031.0,9167.0,18.0,11.0,22.0,-35.0,18.0,-3.0,127.0,-5.0,1.417832612991333
327,-4456.0,1978.0,-1946.0,1.0,12930.0,-2833.0,3031.0,9167.0,6.0,7.0,6.0,-49.0,74.0,103.0,45.0,-78.0,1.422034740447998
328,-1603.0,3135.0,-3103.0,1.0,13069.0,-3470.0,3213.0,8674.0,6.0,7.0,6.0,-49.0,74.0,103.0,45.0,-78.0,1.4256889820098877
329,-1603.0,3135.0,-3103.0,1.0,13069.0,-3470.0,3213.0,8674.0,-5.0,22.0,32.0,92.0,-78.0,-8.0,-28.0,-73.0,1.4280493259429932
330,-1603.0,3135.0,-3103.0,1.0,13069.0,-3470.0,3213.0,8674.0,-6.0,7.0,12.0,57.0,120.0,33.0,-52.0,-6.0,1.4379138946533203
331,1216.0,3406.0,-3135.0,1.0,13275.0,-3724.0,3691.0,8044.0,-6.0,7.0,12.0,57.0,120.0,33.0,-52.0,-6.0,1.4403221607208252
332,1216.0,3406.0,-3135.0,1.0,13275.0,-3724.0,3691.0,8044.0,1.0,-5.0,-11.0,30.0,-26.0,-38.0,-122.0,0.0,1.4457323551177979
333,1216.0,3406.0,-3135.0,1.0,13275.0,-3724.0,3691.0,8044.0,20.0,1.0,10.0,-31.0,-128.0,36.0,110.0,89.0,1.4608266353607178
334,2529.0,2381.0,-1236.0,1.0,13379.0,-3613.0,4204.0,7661.0,20.0,1.0,10.0,-31.0,-128.0,36.0,110.0,89.0,1.4630975723266602
335,2529.0,2381.0,-1236.0,1.0,13379.0,-3613.0,4204.0,7661.0,-7.0,-7.0,-21.0,-15.0,-24.0,-25.0,4.0,-39.0,1.467515230178833
336,2529.0,2381.0,-1236.0,1.0,13379.0,-3613.0,4204.0,7661.0,-21.0,-13.0,-6.0,51.0,64.0,-17.0,-109.0,-111.0,1.4758899211883545
337,3337.0,771.0,1293.0,1.0,13357.0,-3129.0,4643.0,7660.0,-21.0,-13.0,-6.0,51.0,64.0,-17.0,-109.0,-111.0,1.4785714149475098
338,3337.0,771.0,1293.0,1.0,13357.0,-3129.0,4643.0,7660.0,0.0,-12.0,-16.0,79.0,-44.0,-23.0,-54.0,-50.0,1.489973545074463
339,3337.0,771.0,1293.0,1.0,13357.0,-3129.0,4643.0,7660.0,0.0,12.0,29.0,0.0,68.0,78.0,36.0,-18.0,1.4980931282043457
340,4906.0,115.0,3467.0,1.0,13200.0,-2243.0,5177.0,7896.0,0.0,12.0,29.0,0.0,68.0,78.0,36.0,-18.0,1.5003819465637207
341,4906.0,115.0,3467.0,1.0,13200.0,-2243.0,5177.0,7896.0,23.0,5.0,13.0,-34.0,117.0,127.0,106.0,106.0,1.505035638809204
342,4906.0,115.0,3467.0,1.0,13200.0,-2243.0,5177.0,7896.0,-43.0,-56.0,-79.0,-18.0,-41.0,-10.0,-18.0,-33.0,1.5218918323516846
343,7664.0,-253.0,5131.0,1.0,12895.0,-824.0,5896.0,8167.0,-43.0,-56.0,-79.0,-18.0,-41.0,-10.0,-18.0,-33.0,1.5254607200622559
344,7664.0,-253.0,5131.0,1.0,12895.0,-824.0,5896.0,8167.0,-15.0,2.0,23.0,-3.0,19.0,-91.0,-71.0,-26.0,1.5278692245483398
345,7664.0,-253.0,5131.0,1.0,12895.0,-824.0,5896.0,8167.0,8.0,-3.0,-1.0,9.0,9.0,70.0,94.0,90.0,1.5356085300445557
346,9305.0,460.0,7389.0,1.0,12188.0,912.0,6800.0,8532.0,8.0,-3.0,-1.0,9.0,9.0,70.0,94.0,90.0,1.5383327007293701
347,9305.0,460.0,7389.0,1.0,12188.0,912.0,6800.0,8532.0,-17.0,-30.0,-46.0,-127.0,-128.0,-16.0,-15.0,1.0,1.5421340465545654
348,9305.0,460.0,7389.0,1.0,12188.0,912.0,6800.0,8532.0,3.0,4.0,10.0,-2.0,127.0,71.0,-12.0,64.0,1.5588104724884033
349,8265.0,2742.0,9564.0,1.0,10904.0,2441.0,7762.0,9127.0,3.0,4.0,10.0,-2.0,127.0,71.0,-12.0,64.0,1.5612201690673828
350,8265.0,2742.0,9564.0,1.0,10904.0,2441.0,7762.0,9127.0,3.0,4.0,10.0,-2.0,127.0,71.0,-12.0,64.0,1.5641705989837646
351,8265.0,2742.0,9564.0,1.0,10904.0,2441.0,7762.0,9127.0,4.0,3.0,38.0,5.0,-62.0,-63.0,102.0,100.0,1.5807464122772217
352,8265.0,2742.0,9564.0,1.0,10904.0,2441.0,7762.0,9127.0,0.0,-25.0,-60.0,-116.0,-111.0,-37.0,-92.0,-40.0,1.583082675933838
353,5871.0,3471.0,10594.0,1.0,9311.0,3656.0,8398.0,9890.0,0.0,-25.0,-60.0,-116.0,-111.0,-37.0,-92.0,-40.0,1.5863451957702637
354,5871.0,3471.0,10594.0,1.0,9311.0,3656.0,8398.0,9890.0,40.0,36.0,90.0,-4.0,-28.0,48.0,-49.0,-42.0,1.5898034572601318
355,5871.0,3471.0,10594.0,1.0,9311.0,3656.0,8398.0,9890.0,-21.0,-44.0,-45.0,-97.0,90.0,-8.0,-7.0,-108.0,1.5957036018371582
356,3289.0,3806.0,10766.0,1.0,7606.0,4528.0,8638.0,10744.0,-21.0,-44.0,-45.0,-97.0,90.0,-8.0,-7.0,-108.0,1.5979764461517334
357,3289.0,3806.0,10766.0,1.0,7606.0,4528.0,8638.0,10744.0,31.0,-33.0,-34.0,119.0,93.0,82.0,43.0,99.0,1.6030664443969727
358,3289.0,3806.0,10766.0,1.0,7606.0,4528.0,8638.0,10744.0,27.0,-72.0,-19.0,87.0,-54.0,-81.0,48.0,16.0,1.6194489002227783
359,4427.0,2547.0,11607.0,1.0,5732.0,5637.0,8712.0,11308.0,27.0,-72.0,-19.0,87.0,-54.0,-81.0,48.0,16.0,1.6237821578979492
360,4427.0,2547.0,11607.0,1.0,5732.0,5637.0,8712.0,11308.0,48.0,6.0,105.0,47.0,111.0,69.0,-67.0,41.0,1.6265523433685303
361,4427.0,2547.0,11607.0,1.0,5732.0,5637.0,8712.0,11308.0,10.0,99.0,55.0,38.0,40.0,-1.0,14.0,-10.0,1.6418797969818115
362,5079.0,-685.0,6469.0,1.0,4668.0,6627.0,8862.0,11143.0,10.0,99.0,55.0,38.0,40.0,-1.0,14.0,-10.0,1.6461842060089111
363,5079.0,-685.0,6469.0,1.0,4668.0,6627.0,8862.0,11143.0,23.0,-72.0,-128.0,67.0,-11.0,34.0,37.0,66.0,1.6498937606811523
364,5079.0,-685.0,6469.0,1.0,4668.0,6627.0,8862.0,11143.0,83.0,85.0,-23.0,109.0,-118.0,-59.0,-50.0,2.0,1.6553993225097656
365,5240.0,-677.0,1228.0,1.0,4198.0,7082.0,9359.0,10632.0,83.0,85.0,-23.0,109.0,-118.0,-59.0,-50.0,2.0,1.65769624710083
366,5240.0,-677.0,1228.0,1.0,4198.0,7082.0,9359.0,10632.0,-55.0,82.0,45.0,-26.0,76.0,61.0,30.0,-103.0,1.6636817455291748
367,5240.0,-677.0,1228.0,1.0,4198.0,7082.0,9359.0,10632.0,-128.0,-78.0,-50.0,-15.0,-14.0,-6.0,101.0,-90.0,1.679414987564087
368,606.0,-952.0,3695.0,1.0,3843.0,7558.0,9078.0,10682.0,-128.0,-78.0,-50.0,-15.0,-14.0,-6.0,101.0,-90.0,1.6836507320404053
369,606.0,-952.0,3695.0,1.0,3843.0,7558.0,9078.0,10682.0,-97.0,-99.0,-89.0,-62.0,-49.0,-4.0,-9.0,-126.0,1.6880455017089844
370,606.0,-952.0,3695.0,1.0,3843.0,7558.0,9078.0,10682.0,5.0,-6.0,88.0,88.0,28.0,44.0,54.0,41.0,1.7019481658935547
371,679.0,-669.0,2868.0,1.0,3517.0,7945.0,8888.0,10674.0,5.0,-6.0,88.0,88.0,28.0,44.0,54.0,41.0,1.7062547206878662
372,679.0,-669.0,2868.0,1.0,3517.0,7945.0,8888.0,10674.0,23.0,-62.0,-33.0,-101.0,-33.0,-57.0,-112.0,-37.0,1.710968017578125
373,679.0,-669.0,2868.0,1.0,3517.0,7945.0,8888.0,10674.0,-48.0,-99.0,-67.0,-128.0,-3.0,2.0,-27.0,-19.0,1.7155554294586182
374,3145.0,58.0,2358.0,1.0,2952.0,8269.0,9005.0,10499.0,-48.0,-99.0,-67.0,-128.0,-3.0,2.0,-27.0,-19.0,1.7178637981414795
375,3145.0,58.0,2358.0,1.0,2952.0,8269.0,9005.0,10499.0,48.0,74.0,-69.0,-27.0,-95.0,-119.0,127.0,123.0,1.7228622436523438
376,3145.0,58.0,2358.0,1.0,2952.0,8269.0,9005.0,10499.0,44.0,47.0,60.0,74.0,-128.0,-25.0,-6.0,109.0,1.7392919063568115
377,1916.0,417.0,1015.0,1.0,2629.0,8367.0,9134.0,10395.0,44.0,47.0,60.0,74.0,-128.0,-25.0,-6.0,109.0,1.7435188293457031
378,1916.0,417.0,1015.0,1.0,2629.0,8367.0,9134.0,10395.0,-47.0,-54.0,-6.0,-47.0,56.0,5.0,54.0,-31.0,1.7478933334350586
379,1916.0,417.0,1015.0,1.0,2629.0,8367.0,9134.0,10395.0,4.0,30.0,41.0,14.0,127.0,4.0,35.0,91.0,1.7611966133117676
380,-244.0,-108.0,1486.0,1.0,2546.0,8493.0,9012.0,10420.0,4.0,30.0,41.0,14.0,127.0,4.0,35.0,91.0,1.7697608470916748
381,-244.0,-108.0,1486.0,1.0,2546.0,8493.0,9012.0,10420.0,-5.0,30.0,7.0,114.0,80.0,45.0,-40.0,49.0,1.7737340927124023
382,-244.0,-108.0,1486.0,1.0,2546.0,8493.0,9012.0,10420.0,-49.0,-57.0,-9.0,-22.0,-11.0,-101.0,18.0,67.0,1.782747507095337
383,-80.0,-94.0,859.0,1.0,2466.0,8600.0,8948.0,10407.0,-49.0,-57.0,-9.0,-22.0,-11.0,-101.0,18.0,67.0,1.790618896484375
384,-80.0,-94.0,859.0,1.0,2466.0,8600.0,8948.0,10407.0,-55.0,-100.0,42.0,125.0,127.0,75.0,-32.0,-66.0,1.7936334609985352
385,-80.0,-94.0,859.0,1.0,2466.0,8600.0,8948.0,10407.0,118.0,127.0,109.0,-7.0,-68.0,-103.0,-21.0,27.0,1.798008918762207
386,882.0,383.0,-59.0,1.0,2359.0,8575.0,9075.0,10342.0,118.0,127.0,109.0,-7.0,-68.0,-103.0,-21.0,27.0,1.8003625869750977
387,882.0,383.0,-59.0,1.0,2359.0,8575.0,9075.0,10342.0,-25.0,-38.0,127.0,60.0,36.0,14.0,34.0,-50.0,1.8050391674041748
388,882.0,383.0,-59.0,1.0,2359.0,8575.0,9075.0,10342.0,18.0,-28.0,-81.0,-13.0,-81.0,-86.0,57.0,13.0,1.8206753730773926
389,406.0,336.0,-519.0,1.0,2324.0,8511.0,9167.0,10321.0,18.0,-28.0,-81.0,-13.0,-81.0,-86.0,57.0,13.0,1.8252739906311035
390,406.0,336.0,-519.0,1.0,2324.0,8511.0,9167.0,10321.0,-26.0,-31.0,-49.0,3.0,-57.0,2.0,-61.0,57.0,1.8374133110046387
391,406.0,336.0,-519.0,1.0,2324.0,8511.0,9167.0,10321.0,-27.0,-7.0,-56.0,-4.0,77.0,120.0,34.0,-128.0,1.8398633003234863
392,-182.0,201.0,-586.0,1.0,2356.0,8454.0,9204.0,10328.0,-27.0,-7.0,-56.0,-4.0,77.0,120.0,34.0,-128.0,1.8421409130096436
393,-182.0,201.0,-586.0,1.0,2356.0,8454.0,9204.0,10328.0,-3.0,39.0,0.0,72.0,-29.0,-17.0,-92.0,-42.0,1.8444912433624268
394,-182.0,201.0,-586.0,1.0,2356.0,8454.0,9204.0,10328.0,5.0,-39.0,35.0,46.0,-48.0,0.0,-96.0,-14.0,1.8587310314178467
395,-78.0,250.0,-541.0,1.0,2361.0,8406.0,9252.0,10324.0,5.0,-39.0,35.0,46.0,-48.0,0.0,-96.0,-14.0,1.86116361618042
396,-78.0,250.0,-541.0,1.0,2361.0,8406.0,9252.0,10324.0,1.0,13.0,-32.0,-73.0,-44.0,-94.0,-42.0,2.0,1.8643476963043213
397,-78.0,250.0,-541.0,1.0,2361.0,8406.0,9252.0,10324.0,23.0,72.0,21.0,73.0,111.0,46.0,-27.0,-27.0,1.8805921077728271
398,-117.0,423.0,-398.0,1.0,2345.0,8335.0,9272.0,10366.0,23.0,72.0,21.0,73.0,111.0,46.0,-27.0,-27.0,1.882873773574829
399,-117.0,423.0,-398.0,1.0,2345.0,8335.0,9272.0,10366.0,46.0,71.0,14.0,-2.0,-55.0,-28.0,41.0,15.0,1.8883261680603027
400,-117.0,423.0,-398.0,1.0,2345.0,8335.0,9272.0,10366.0,-30.0,-71.0,-25.0,-31.0,-63.0,10.0,69.0,-6.0,1.8959367275238037
401,-318.0,283.0,-349.0,1.0,2360.0,8277.0,9264.0,10417.0,-30.0,-71.0,-25.0,-31.0,-63.0,10.0,69.0,-6.0,1.8982393741607666
402,-318.0,283.0,-349.0,1.0,2360.0,8277.0,9264.0,10417.0,1.0,52.0,-5.0,-11.0,-91.0,-58.0,-42.0,-109.0,1.9026613235473633
403,-318.0,283.0,-349.0,1.0,2360.0,8277.0,9264.0,10417.0,-54.0,-33.0,52.0,98.0,78.0,77.0,-20.0,-60.0,1.9184865951538086
404,-402.0,129.0,-268.0,1.0,2390.0,8248.0,9244.0,10451.0,-54.0,-33.0,52.0,98.0,78.0,77.0,-20.0,-60.0,1.921133279800415
405,-402.0,129.0,-268.0,1.0,2390.0,8248.0,9244.0,10451.0,16.0,-11.0,-4.0,-10.0,96.0,27.0,76.0,71.0,1.9243700504302979
406,-402.0,129.0,-268.0,1.0,2390.0,8248.0,9244.0,10451.0,70.0,104.0,116.0,-73.0,92.0,15.0,-50.0,17.0,1.9407052993774414
407,-272.0,30.0,-259.0,1.0,2426.0,8229.0,9242.0,10459.0,70.0,104.0,116.0,-73.0,92.0,15.0,-50.0,17.0,1.9429607391357422
408,-272.0,30.0,-259.0,1.0,2426.0,8229.0,9242.0,10459.0,-12.0,-40.0,-26.0,-71.0,51.0,1.0,2.0,37.0,1.9473216533660889
409,-272.0,30.0,-259.0,1.0,2426.0,8229.0,9242.0,10459.0,28.0,49.0,33.0,-77.0,-2.0,-16.0,61.0,29.0,1.9555394649505615
410,-168.0,25.0,-269.0,1.0,2458.0,8214.0,9265.0,10442.0,28.0,49.0,33.0,-77.0,-2.0,-16.0,61.0,29.0,1.9578237533569336
411,-168.0,25.0,-269.0,1.0,2458.0,8214.0,9265.0,10442.0,-8.0,16.0,-31.0,-21.0,52.0,40.0,-73.0,-6.0,1.9623537063598633
412,-168.0,25.0,-269.0,1.0,2458.0,8214.0,9265.0,10442.0,-45.0,-63.0,-2.0,12.0,65.0,18.0,-128.0,-91.0,1.9792273044586182
413,-205.0,1.0,-234.0,1.0,2497.0,8197.0,9275.0,10438.0,-45.0,-63.0,-2.0,12.0,65.0,18.0,-128.0,-91.0,1.9833698272705078
414,-205.0,1.0,-234.0,1.0,2497.0,8197.0,9275.0,10438.0,-9.0,-17.0,-15.0,68.0,-9.0,-45.0,-92.0,15.0,1.9879179000854492
415,-205.0,1.0,-234.0,1.0,2497.0,8197.0,9275.0,10438.0,30.0,4.0,-83.0,-55.0,-104.0,-30.0,-122.0,28.0,2.0008084774017334
416,-87.0,-31.0,-179.0,1.0,2526.0,8184.0,9284.0,10434.0,30.0,4.0,-83.0,-55.0,-104.0,-30.0,-122.0,28.0,2.0049734115600586
417,-87.0,-31.0,-179.0,1.0,2526.0,8184.0,9284.0,10434.0,48.0,28.0,-16.0,-40.0,90.0,75.0,4.0,21.0,2.0092813968658447
418,-87.0,-31.0,-179.0,1.0,2526.0,8184.0,9284.0,10434.0,-27.0,-56.0,-39.0,-46.0,-32.0,-17.0,-38.0,8.0,2.0173776149749756
419,90.0,-70.0,-206.0,1.0,2539.0,8181.0,9307.0,10412.0,-27.0,-56.0,-39.0,-46.0,-32.0,-17.0,-38.0,8.0,2.0198848247528076
420,90.0,-70.0,-206.0,1.0,2539.0,8181.0,9307.0,10412.0,-47.0,-33.0,-24.0,-52.0,-103.0,-101.0,44.0,-45.0,2.0222344398498535
421,90.0,-70.0,-206.0,1.0,2539.0,8181.0,9307.0,10412.0,29.0,-21.0,-47.0,-12.0,83.0,-1.0,-84.0,51.0,2.0474438667297363
422,-40.0,-57.0,-151.0,1.0,2567.0,8172.0,9320.0,10401.0,29.0,-21.0,-47.0,-12.0,83.0,-1.0,-84.0,51.0,2.0517969131469727
423,-40.0,-57.0,-151.0,1.0,2567.0,8172.0,9320.0,10401.0,36.0,30.0,97.0,10.0,-9.0,115.0,-70.0,-48.0,2.0559964179992676
424,-40.0,-57.0,-151.0,1.0,2567.0,8172.0,9320.0,10401.0,-32.0,-40.0,-15.0,59.0,-66.0,-5.0,26.0,-16.0,2.060450315475464
425,-84.0,-96.0,-153.0,1.0,2599.0,8170.0,9326.0,10388.0,-32.0,-40.0,-15.0,59.0,-66.0,-5.0,26.0,-16.0,2.0627341270446777
426,-84.0,-96.0,-153.0,1.0,2599.0,8170.0,9326.0,10388.0,37.0,31.0,18.0,3.0,-94.0,-18.0,4.0,28.0,2.067504405975342
427,-84.0,-96.0,-153.0,1.0,2599.0,8170.0,9326.0,10388.0,-5.0,-4.0,50.0,36.0,37.0,59.0,11.0,5.0,2.075482130050659
428,-102.0,-65.0,-179.0,1.0,2636.0,8157.0,9331.0,10385.0,-5.0,-4.0,50.0,36.0,37.0,59.0,11.0,5.0,2.0782949924468994
429,-102.0,-65.0,-179.0,1.0,2636.0,8157.0,9331.0,10385.0,-7.0,-7.0,-79.0,-14.0,21.0,32.0,20.0,1.0,2.082979202270508
430,-102.0,-65.0,-179.0,1.0,2636.0,8157.0,9331.0,10385.0,-4.0,-1.0,-12.0,0.0,-54.0,-105.0,-17.0,12.0,2.099242925643921
431,-99.0,-45.0,-154.0,1.0,2665.0,8146.0,9334.0,10384.0,-4.0,-1.0,-12.0,0.0,-54.0,-105.0,-17.0,12.0,2.10329532623291
432,-99.0,-45.0,-154.0,1.0,2665.0,8146.0,9334.0,10384.0,25.0,40.0,31.0,-8.0,72.0,-6.0,-10.0,55.0,2.1079506874084473
433,-99.0,-45.0,-154.0,1.0,2665.0,8146.0,9334.0,10384.0,-19.0,-14.0,21.0,-47.0,58.0,52.0,83.0,-12.0,2.121133327484131
434,-47.0,-58.0,-161.0,1.0,2687.0,8141.0,9343.0,10374.0,-19.0,-14.0,21.0,-47.0,58.0,52.0,83.0,-12.0,2.125685453414917
435,-47.0,-58.0,-161.0,1.0,2687.0,8141.0,9343.0,10374.0,17.0,8.0,15.0,12.0,-102.0,-33.0,76.0,66.0,2.130340099334717
436,-47.0,-58.0,-161.0,1.0,2687.0,8141.0,9343.0,10374.0,4.0,24.0,47.0,-35.0,64.0,22.0,50.0,17.0,2.1357057094573975
437,-10.0,-61.0,-147.0,1.0,2709.0,8136.0,9357.0,10359.0,4.0,24.0,47.0,-35.0,64.0,22.0,50.0,17.0,2.1380906105041504
438,-10.0,-61.0,-147.0,1.0,2709.0,8136.0,9357.0,10359.0,-14.0,-20.0,4.0,10.0,40.0,37.0,84.0,26.0,2.1424312591552734
439,-10.0,-61.0,-147.0,1.0,2709.0,8136.0,9357.0,10359.0,12.0,44.0,-2.0,7.0,-91.0,-45.0,29.0,-7.0,2.1584389209747314
440,31.0,-35.0,-105.0,1.0,2721.0,8133.0,9373.0,10344.0,12.0,44.0,-2.0,7.0,-91.0,-45.0,29.0,-7.0,2.1607425212860107
441,31.0,-35.0,-105.0,1.0,2721.0,8133.0,9373.0,10344.0,-2.0,16.0,-36.0,-56.0,23.0,33.0,-14.0,-19.0,2.1651113033294678
442,31.0,-35.0,-105.0,1.0,2721.0,8133.0,9373.0,10344.0,0.0,-20.0,-3.0,2.0,97.0,24.0,-86.0,-13.0,2.181614875793457
443,24.0,10.0,-48.0,1.0,2727.0,8128.0,9387.0,10334.0,0.0,-20.0,-3.0,2.0,97.0,24.0,-86.0,-13.0,2.183906316757202
444,24.0,10.0,-48.0,1.0,2727.0,8128.0,9387.0,10334.0,1.0,3.0,31.0,1.0,13.0,33.0,-1.0,-72.0,2.186490058898926
445,24.0,10.0,-48.0,1.0,2727.0,8128.0,9387.0,10334.0,15.0,15.0,-99.0,63.0,20.0,-13.0,13.0,21.0,2.195772886276245
446,2.0,8.0,-8.0,1.0,2728.0,8128.0,9390.0,10331.0,15.0,15.0,-99.0,63.0,20.0,-13.0,13.0,21.0,2.198031187057495
447,2.0,8.0,-8.0,1.0,2728.0,8128.0,9390.0,10331.0,-19.0,-25.0,-21.0,45.0,68.0,-18.0,31.0,27.0,2.202786445617676
448,2.0,8.0,-8.0,1.0,2728.0,8128.0,9390.0,10331.0,-1.0,9.0,20.0,-29.0,-77.0,-14.0,6.0,-19.0,2.2180607318878174
449,-56.0,8.0,22.0,1.0,2739.0,8126.0,9397.0,10323.0,-1.0,9.0,20.0,-29.0,-77.0,-14.0,6.0,-19.0,2.220348596572876
450,-56.0,8.0,22.0,1.0,2739.0,8126.0,9397.0,10323.0,8.0,28.0,88.0,-7.0,55.0,-2.0,5.0,3.0,2.2252395153045654
451,-56.0,8.0,22.0,1.0,2739.0,8126.0,9397.0,10323.0,13.0,16.0,27.0,-35.0,-56.0,-23.0,29.0,25.0,2.2408015727996826
452,-115.0,-5.0,42.0,1.0,2755.0,8126.0,9397.0,10319.0,13.0,16.0,27.0,-35.0,-56.0,-23.0,29.0,25.0,2.2431037425994873
453,-115.0,-5.0,42.0,1.0,2755.0,8126.0,9397.0,10319.0,-9.0,-17.0,3.0,58.0,-13.0,-14.0,-2.0,-8.0,2.247192859649658
454,-115.0,-5.0,42.0,1.0,2755.0,8126.0,9397.0,10319.0,12.0,10.0,-72.0,57.0,-90.0,-32.0,-22.0,0.0,2.2549657821655273
455,-137.0,-6.0,41.0,1.0,2771.0,8127.0,9395.0,10316.0,12.0,10.0,-72.0,57.0,-90.0,-32.0,-22.0,0.0,2.2632157802581787
456,-137.0,-6.0,41.0,1.0,2771.0,8127.0,9395.0,10316.0,4.0,14.0,80.0,-30.0,-7.0,-28.0,-61.0,21.0,2.265799045562744
457,-137.0,-6.0,41.0,1.0,2771.0,8127.0,9395.0,10316.0,-11.0,-36.0,-14.0,8.0,27.0,3.0,-3.0,-14.0,2.2792277336120605
458,-89.0,-7.0,28.0,1.0,2783.0,8128.0,9395.0,10312.0,-11.0,-36.0,-14.0,8.0,27.0,3.0,-3.0,-14.0,2.283297538757324
459,-89.0,-7.0,28.0,1.0,2783.0,8128.0,9395.0,10312.0,-3.0,-10.0,-93.0,-2.0,-128.0,-12.0,105.0,-6.0,2.287443161010742
460,-89.0,-7.0,28.0,1.0,2783.0,8128.0,9395.0,10312.0,-5.0,-16.0,12.0,-90.0,66.0,-22.0,-77.0,9.0,2.3021743297576904
461,-68.0,-45.0,17.0,1.0,2804.0,8126.0,9394.0,10309.0,-5.0,-16.0,12.0,-90.0,66.0,-22.0,-77.0,9.0,2.3067800998687744
462,-68.0,-45.0,17.0,1.0,2804.0,8126.0,9394.0,10309.0,8.0,34.0,43.0,27.0,63.0,38.0,-79.0,-36.0,2.3114261627197266
463,-68.0,-45.0,17.0,1.0,2804.0,8126.0,9394.0,10309.0,-10.0,-17.0,-32.0,18.0,-60.0,18.0,-20.0,-12.0,2.315422296524048
464,-81.0,-92.0,1.0,1.0,2823.0,8134.0,9388.0,10303.0,-10.0,-17.0,-32.0,18.0,-60.0,18.0,-20.0,-12.0,2.3177554607391357
465,-81.0,-92.0,1.0,1.0,2823.0,8134.0,9388.0,10303.0,-5.0,-13.0,-27.0,5.0,31.0,-29.0,-17.0,-74.0,2.322479724884033
466,-81.0,-92.0,1.0,1.0,2823.0,8134.0,9388.0,10303.0,-6.0,-11.0,11.0,35.0,-21.0,6.0,35.0,9.0,2.3379263877868652
467,-49.0,-57.0,-4.0,1.0,2835.0,8139.0,9386.0,10297.0,-6.0,-11.0,11.0,35.0,-21.0,6.0,35.0,9.0,2.340256929397583
468,-49.0,-57.0,-4.0,1.0,2835.0,8139.0,9386.0,10297.0,3.0,-25.0,-13.0,-53.0,-99.0,-34.0,19.0,33.0,2.3449511528015137
469,-49.0,-57.0,-4.0,1.0,2835.0,8139.0,9386.0,10297.0,9.0,14.0,41.0,-3.0,30.0,-45.0,108.0,10.0,2.362755537033081
470,-26.0,-34.0,5.0,1.0,2848.0,8139.0,9389.0,10292.0,9.0,14.0,41.0,-3.0,30.0,-45.0,108.0,10.0,2.3655412197113037
471,-26.0,-34.0,5.0,1.0,2848.0,8139.0,9389.0,10292.0,-10.0,-29.0,-58.0,-9.0,-22.0,-7.0,-7.0,-11.0,2.3679544925689697
472,-26.0,-34.0,5.0,1.0,2848.0,8139.0,9389.0,10292.0,10.0,29.0,51.0,-74.0,-9.0,77.0,-44.0,-16.0,2.3835840225219727
473,-40.0,-5.0,0.0,1.0,2861.0,8131.0,9389.0,10293.0,10.0,29.0,51.0,-74.0,-9.0,77.0,-44.0,-16.0,2.385861396789551
474,-40.0,-5.0,0.0,1.0,2861.0,8131.0,9389.0,10293.0,-18.0,-34.0,-81.0,30.0,-9.0,-4.0,15.0,1.0,2.3881943225860596
475,-40.0,-5.0,0.0,1.0,2861.0,8131.0,9389.0,10293.0,1.0,-1.0,-21.0,74.0,36.0,35.0,-15.0,-6.0,2.398239850997925
476,-38.0,2.0,46.0,1.0,2868.0,8127.0,9386.0,10297.0,1.0,-1.0,-21.0,74.0,36.0,35.0,-15.0,-6.0,2.40053129196167
477,-38.0,2.0,46.0,1.0,2868.0,8127.0,9386.0,10297.0,4.0,16.0,65.0,21.0,-16.0,12.0,54.0,22.0,2.4051334857940674
478,-38.0,2.0,46.0,1.0,2868.0,8127.0,9386.0,10297.0,-12.0,-23.0,-47.0,-23.0,125.0,-24.0,60.0,7.0,2.420518398284912
479,3.0,15.0,44.0,1.0,2867.0,8127.0,9388.0,10296.0,-12.0,-23.0,-47.0,-23.0,125.0,-24.0,60.0,7.0,2.4228036403656006
480,3.0,15.0,44.0,1.0,2867.0,8127.0,9388.0,10296.0,-20.0,0.0,29.0,8.0,34.0,-6.0,-38.0,-47.0,2.4276976585388184
481,3.0,15.0,44.0,1.0,2867.0,8127.0,9388.0,10296.0,3.0,26.0,-38.0,4.0,49.0,17.0,-55.0,-15.0,2.43487286567688
482,-34.0,12.0,43.0,1.0,2876.0,8122.0,9388.0,10297.0,3.0,26.0,-38.0,4.0,49.0,17.0,-55.0,-15.0,2.4429879188537598
483,-34.0,12.0,43.0,1.0,2876.0,8122.0,9388.0,10297.0,15.0,44.0,81.0,-12.0,75.0,9.0,14.0,9.0,2.445417881011963
484,-34.0,12.0,43.0,1.0,2876.0,8122.0,9388.0,10297.0,-4.0,-2.0,38.0,43.0,77.0,33.0,38.0,29.0,2.459548234939575
485,-68.0,12.0,30.0,1.0,2887.0,8116.0,9387.0,10300.0,-4.0,-2.0,38.0,43.0,77.0,33.0,38.0,29.0,2.4635732173919678
486,-68.0,12.0,30.0,1.0,2887.0,8116.0,9387.0,10300.0,17.0,-6.0,-20.0,2.0,-14.0,45.0,-33.0,14.0,2.4679832458496094
487,-68.0,12.0,30.0,1.0,2887.0,8116.0,9387.0,10300.0,8.0,-2.0,28.0,38.0,-39.0,-3.0,59.0,2.0,2.481196880340576
488,-87.0,23.0,38.0,1.0,2895.0,8112.0,9384.0,10303.0,8.0,-2.0,28.0,38.0,-39.0,-3.0,59.0,2.0,2.485112428665161
489,-87.0,23.0,38.0,1.0,2895.0,8112.0,9384.0,10303.0,-9.0,-9.0,89.0,31.0,106.0,26.0,-48.0,20.0,2.4910690784454346
490,-87.0,23.0,38.0,1.0,2895.0,8112.0,9384.0,10303.0,5.0,-16.0,-26.0,-31.0,33.0,37.0,-21.0,21.0,2.4943785667419434
491,-71.0,28.0,23.0,1.0,2903.0,8107.0,9384.0,10305.0,5.0,-16.0,-26.0,-31.0,33.0,37.0,-21.0,21.0,2.5029845237731934
492,-71.0,28.0,23.0,1.0,2903.0,8107.0,9384.0,10305.0,13.0,8.0,-51.0,51.0,41.0,-5.0,70.0,18.0,2.5053372383117676
493,-71.0,28.0,23.0,1.0,2903.0,8107.0,9384.0,10305.0,-1.0,24.0,36.0,-17.0,29.0,38.0,22.0,-6.0,2.519800901412964
494,-50.0,15.0,30.0,1.0,2910.0,8103.0,9384.0,10306.0,-1.0,24.0,36.0,-17.0,29.0,38.0,22.0,-6.0,2.523531198501587
495,-50.0,15.0,30.0,1.0,2910.0,8103.0,9384.0,10306.0,-4.0,-7.0,5.0,-80.0,-54.0,-24.0,-24.0,6.0,2.525937080383301
496,-50.0,15.0,30.0,1.0,2910.0,8103.0,9384.0,10306.0,-9.0,-21.0,-4.0,-26.0,-128.0,-21.0,11.0,-37.0,2.5426478385925293
497,-92.0,17.0,33.0,1.0,2923.0,8096.0,9381.0,10311.0,-9.0,-21.0,-4.0,-26.0,-128.0,-21.0,11.0,-37.0,2.5477237701416016
498,-92.0,17.0,33.0,1.0,2923.0,8096.0,9381.0,10311.0,8.0,28.0,34.0,18.0,24.0,-20.0,22.0,-3.0,2.5513992309570312
499,-92.0,17.0,33.0,1.0,2923.0,8096.0,9381.0,10311.0,-4.0,-6.0,66.0,64.0,100.0,36.0,-47.0,-1.0,2.5542538166046143
